Au seeds-chemos,,exp8,,exp9,
Wavelength (nm),Abs,Wavelength (nm),Abs,Wavelength (nm),Abs
1100,0.00765876548534563,1100,0.294683944183983,1100,0.238291121054949
1099,0.00587595163573657,1099,0.303036697177165,1099,0.246731131969127
1098,0.0127318197387717,1098,0.308216861722761,1098,0.248414265845376
1097,0.00514042516899351,1097,0.3074684730792,1097,0.243798382910482
1096,0.00809707644875384,1096,0.307544039622643,1096,0.243652511279877
1095,0.0087116091020937,1095,0.310961234235381,1095,0.247038579273498
1094,0.00862829208195381,1094,0.315683913974164,1094,0.245509346139398
1093,0.00745102021512316,1093,0.312919421235199,1093,0.249400053324512
1092,0.0104941124897626,1092,0.317977422754852,1092,0.251682745431187
1091,0.00885504160215452,1091,0.322780711223452,1091,0.249749557848408
1090,0.0103522055360614,1090,0.327157761265924,1090,0.251606318846557
1089,0.00881974700188111,1089,0.327571562000209,1089,0.252621430413108
1088,0.00842715594300312,1088,0.332951303474668,1088,0.253839360798786
1087,0.00424310192709567,1087,0.328187285325549,1087,0.25875572029172
1086,0.00910836980347993,1086,0.335509713121806,1086,0.255201805924335
1085,0.00988057622587391,1085,0.337198972412934,1085,0.254291004380954
1084,0.0104662418262206,1084,0.338288735233671,1084,0.255854796325978
1083,0.0101863350024487,1083,0.343887789389909,1083,0.256260810884563
1082,0.00995687655292017,1082,0.347670502318145,1082,0.25806004214877
1081,0.00689399393617263,1081,0.349835136730525,1081,0.259033260474019
1080,0.00969262369065981,1080,0.351463948927759,1080,0.259960148482554
1079,0.00966477794474952,1079,0.352168565798558,1079,0.261078573273922
1078,0.0100680272896462,1078,0.358205246938396,1078,0.262384282149526
1077,0.0100709150449121,1077,0.359910251076212,1077,0.262132283877671
1076,0.0115585660090222,1076,0.359383105883573,1076,0.264111336194558
1075,0.00919659103209374,1075,0.364565979381647,1075,0.263383438209754
1074,0.0109804264518199,1074,0.36336267393906,1074,0.267102314255063
1073,0.0100938588103602,1073,0.370241203252638,1073,0.266004585484822
1072,0.00903145192190734,1072,0.37357818012,1072,0.267699422401552
1071,0.0116500517470756,1071,0.373763150158415,1071,0.269921941416645
1070,0.0100375348256315,1070,0.379266717258659,1070,0.268924523182844
1069,0.0132116808838402,1069,0.37869695666654,1069,0.268122187350541
1068,0.0113392223166347,1068,0.386402574896093,1068,0.274275931216613
1067,0.010156417197027,1067,0.383524912807557,1067,0.272075389973835
1066,0.0116612727720397,1066,0.391297116855306,1066,0.273090225360089
1065,0.00977532443415835,1065,0.392713874340786,1065,0.273959536585894
1064,0.0120354019649231,1064,0.394989340972481,1064,0.277219564461495
1063,0.00961266461146188,1063,0.39788037149589,1063,0.274900199188076
1062,0.011470714238482,1062,0.401856064074659,1062,0.276774733281651
1061,0.0113881152289559,1061,0.403858987154536,1061,0.277146153808472
1060,0.0126764319427516,1060,0.406604537072215,1060,0.278846601073676
1059,0.0138080317532516,1059,0.410424443854983,1059,0.278020585675407
1058,0.0124077494702569,1058,0.409031429913787,1058,0.278677013714586
1057,0.0127266751463718,1057,0.411913422293769,1057,0.279706918793337
1056,0.0126138559639453,1056,0.417221026755196,1056,0.281877112669284
1055,0.0135371796969384,1055,0.419354274616832,1055,0.281821633262245
1054,0.0131445185575671,1054,0.421911018150718,1054,0.284173130975461
1053,0.0116568321895815,1053,0.422535911907487,1053,0.283782568464461
1052,0.013409866277276,1052,0.42507723777353,1052,0.285933471769336
1051,0.0113683713957995,1051,0.428219350491774,1051,0.28572905675759
1050,0.0126004518054546,1050,0.431790994341122,1050,0.288339075950018
1049,0.0124510620809844,1049,0.435863953095836,1049,0.288300009407512
1048,0.0118730907628219,1048,0.438021841358126,1048,0.2885921634299
1047,0.0133533508674005,1047,0.440865713326211,1047,0.29028189663107
1046,0.0123055051589921,1046,0.44312908187,1046,0.290943427816079
1045,0.0133761750531464,1045,0.443663795571678,1045,0.29114175994446
1044,0.0139040552849808,1044,0.445931460338062,1044,0.292386132615617
1043,0.0132619059858677,1043,0.449236187216025,1043,0.293970645442392
1042,0.0127727387446704,1042,0.450562010227911,1042,0.294675066633123
1041,0.0130315374424697,1041,0.453737357933201,1041,0.295237925457375
1040,0.0138365185682491,1040,0.456864822108997,1040,0.296885301612354
1039,0.0125888867208522,1039,0.457973759053828,1039,0.297599246998596
1038,0.0137112012430937,1038,0.459936064514876,1038,0.296483758207701
1037,0.0134356303476623,1037,0.462710691275321,1037,0.299344779572523
1036,0.0137250672019567,1036,0.465946447510222,1036,0.300502139283706
1035,0.0134106939075898,1035,0.469593318666362,1035,0.300274885770079
1034,0.0134003352934566,1034,0.471275956108955,1034,0.301987640793911
1033,0.0142627076583287,1033,0.472635591476754,1033,0.302591653056045
1032,0.0135593191656778,1032,0.474263071794505,1032,0.304229792708196
1031,0.0136009305336445,1031,0.475938686719894,1031,0.30354139986688
1030,0.0137767411672333,1030,0.47979994700121,1030,0.305206497681339
1029,0.0130753925008373,1029,0.480764659162408,1029,0.306782591006055
1028,0.0140987063676305,1028,0.482871423688928,1028,0.308406181339462
1027,0.0137883112066337,1027,0.485175635187822,1027,0.310926143377424
1026,0.0144111164028567,1026,0.48560166214974,1026,0.310234307236799
1025,0.0134989390269576,1025,0.488185596750122,1025,0.311163359802177
1024,0.0144453964808571,1024,0.491703972581623,1024,0.312807351263084
1023,0.0150453208899539,1023,0.492117805162313,1023,0.313570626795449
1022,0.0148902927097259,1022,0.494076043421348,1022,0.314359455832408
1021,0.0135699753557497,1021,0.497693184050207,1021,0.315746811389438
1020,0.0146759005773503,1020,0.498010368676529,1020,0.315936710273341
1019,0.0158561946694285,1019,0.499317592872363,1019,0.317810602006243
1018,0.015066250986668,1018,0.501818282114595,1018,0.318827887975105
1017,0.0147597432867558,1017,0.503280072633689,1017,0.321588815772445
1016,0.0152340498042822,1016,0.505890824292193,1016,0.32161989314261
1015,0.0157970245269812,1015,0.508208599647294,1015,0.323407662640352
1014,0.0159974946499105,1014,0.509233419627641,1014,0.323942893893783
1013,0.0160531464846378,1013,0.510561666075735,1013,0.324578194565299
1012,0.0161778518241703,1012,0.511014148991951,1012,0.32576235768146
1011,0.016371293847871,1011,0.51373041589629,1011,0.327209860032833
1010,0.0165876274091758,1010,0.514055055461544,1010,0.328648134156346
1009,0.0168503785434016,1009,0.515137431733781,1009,0.329328652274067
1008,0.0166924720651117,1008,0.517358657219251,1008,0.330837790523937
1007,0.0164136325398318,1007,0.518018239960485,1007,0.332452278065322
1006,0.0176838560490369,1006,0.519291337250744,1006,0.333133241450071
1005,0.0176312029196842,1005,0.521011451443597,1005,0.334548933931737
1004,0.0177262420072782,1004,0.520423451487355,1004,0.336000089387962
1003,0.0175313870899028,1003,0.522204404633321,1003,0.336650562731503
1002,0.0186922633823625,1002,0.524476844384263,1002,0.338668170998238
1001,0.01848206412764,1001,0.52414691937651,1001,0.339567702143241
1000,0.0184438717414958,1000,0.524951610725335,1000,0.341538379980579
999,0.0182100908702006,999,0.52634954492169,999,0.344394301855464
998,0.0186250047633975,998,0.526833808956917,998,0.343671191130925
997,0.0197478225134644,997,0.528297537900193,997,0.345967744187212
996,0.0199467914353619,996,0.529226749319174,996,0.347370063727141
995,0.020476211258062,995,0.528996622792613,995,0.348695914067365
994,0.0207157496360073,994,0.530629707007991,994,0.350208971624034
993,0.0207969648111076,993,0.53048088701374,993,0.351388596770683
992,0.020772036572258,992,0.531061305419737,992,0.352824657222987
991,0.0209351279519888,991,0.530943102712175,991,0.354718514100644
990,0.0211097755963635,990,0.530804544518746,990,0.356142105407135
989,0.0218969414401931,989,0.530652414335477,989,0.357349766951062
988,0.0221121779307248,988,0.532585521929221,988,0.358931070212691
987,0.0226056854902199,987,0.531097796948938,987,0.359852774122676
986,0.0227677211748932,986,0.53316540432923,986,0.362715811000953
985,0.0226043220395694,985,0.531362914214761,985,0.363874390921813
984,0.0235192045430528,984,0.532193882889115,984,0.364739895536451
983,0.0238880499349666,983,0.531776394315499,983,0.367163252830881
982,0.0237419451010165,982,0.530357575000449,982,0.369752772154355
981,0.0240155182117076,981,0.531788460429102,981,0.371010644460969
980,0.0243952452075245,980,0.530837015815909,980,0.37243791129933
979,0.0245791519397777,979,0.531041873832412,979,0.373968254531753
978,0.0249444027297957,978,0.530287089093502,978,0.375121426330825
977,0.0250655996780777,977,0.529488711472826,977,0.377473573748447
976,0.0254708404322968,976,0.528783411620635,976,0.378966658795987
975,0.0258436280464668,975,0.526460500693809,975,0.380200535407076
974,0.0262965662897718,974,0.528100388738816,974,0.381948138299292
973,0.026394538720253,973,0.525915910678781,973,0.383768722746926
972,0.0266951400777917,972,0.52494437138687,972,0.384410979350611
971,0.0268590394858699,971,0.524187118552646,971,0.387706520960052
970,0.0276281797696051,970,0.521846587668616,970,0.389384545039908
969,0.0268762782611128,969,0.521962727454574,969,0.390842750094505
968,0.0267468389408723,968,0.519791778745154,968,0.392685869158906
967,0.0273951936747709,967,0.518440169839582,967,0.394131355550123
966,0.0285938884908458,966,0.517076108903852,966,0.395734336235998
965,0.0284299411973133,965,0.515902574980555,965,0.397048822015283
964,0.0282741228693877,964,0.513476772630888,964,0.398893684524063
963,0.0279100095188902,963,0.511305928145373,963,0.400712125426049
962,0.0278020630932233,962,0.510511973719526,962,0.402742287302788
961,0.0287392841971281,961,0.508180696371901,961,0.404307680660565
960,0.0281833214074684,960,0.505440495323278,960,0.405883778869625
959,0.0275693974589843,959,0.50426996066278,959,0.408071610758951
958,0.0283788706175704,958,0.5017782926539,958,0.410112025226268
957,0.0282819967229796,957,0.500630977079258,957,0.411162123729782
956,0.0276975923097596,956,0.498127844410554,956,0.413609592416868
955,0.0277381248730571,955,0.494657668442262,955,0.415976512675128
954,0.0276376419548525,954,0.491186283229829,954,0.416099845529963
953,0.0275707214215693,953,0.49110836222534,953,0.418868209766416
952,0.0277919626015814,952,0.487451655982002,952,0.420839276583752
951,0.0278892240891345,951,0.484781719558566,951,0.422105760438719
950,0.027655408247346,950,0.48237370065677,950,0.424897478097157
949,0.0277595929365575,949,0.479772833832246,949,0.426852445827908
948,0.0275876298820004,948,0.476243585340242,948,0.427720911074045
947,0.027867694413973,947,0.474118558126022,947,0.429703906481211
946,0.027740525490698,946,0.47039851331527,946,0.431728208968815
945,0.027669147276208,945,0.467211777447442,945,0.433561882327329
944,0.0277837664736381,944,0.464988082491819,944,0.43522055110595
943,0.0277853394558956,943,0.460715497051907,943,0.437792840029544
942,0.0280682653540386,942,0.457622051017451,942,0.439906074256099
941,0.0275615916782906,941,0.453773601099317,941,0.441027372197981
940,0.0275513037081558,940,0.45189119702379,940,0.444414359601445
939,0.027909347019725,939,0.448665296854035,939,0.4464816506044
938,0.0278302960412442,938,0.445147392535407,938,0.448201473627203
937,0.02829735805529,937,0.442395107550323,937,0.449478664130332
936,0.029156412412901,936,0.43892956142614,936,0.45252677261741
935,0.0284107613901197,935,0.434446310896578,935,0.454051651816264
934,0.0286320439309979,934,0.431120237721602,934,0.456409525804428
933,0.028083122055097,933,0.427544176188139,933,0.45841563601759
932,0.0286842227744404,932,0.42462987047148,932,0.462095866217071
931,0.0285139111890423,931,0.420484172712794,931,0.463956896306842
930,0.0283429203102521,930,0.416767685600013,930,0.465393692109531
929,0.0284000663899879,929,0.411591616713102,929,0.467354656068213
928,0.0280005053600689,928,0.407508848931816,928,0.468749772598901
927,0.0282415238717903,927,0.405134276704106,927,0.472604156901431
926,0.0280208819483684,926,0.40048927751425,926,0.473809020287948
925,0.0289340878599444,925,0.397199680081315,925,0.476476112199282
924,0.0285410570354304,924,0.391795026189258,924,0.478066901326318
923,0.0285094607590128,923,0.388589673315676,923,0.480396239402965
922,0.0281145768594907,922,0.384429391000425,922,0.482368394998967
921,0.0276070768045995,921,0.379589657281197,921,0.483765744960854
920,0.0278860221724459,920,0.376008522861203,920,0.487772229400418
919,0.0281376654177069,919,0.370885638697594,919,0.489227267686256
918,0.0282643152864937,918,0.367101733738806,918,0.491535234382222
917,0.0283962250976378,917,0.363448650475002,917,0.493922283002518
916,0.0279824488572191,916,0.360152306874061,916,0.496039379518836
915,0.0283018891995273,915,0.355654912731404,915,0.497577453878609
914,0.0280603677607422,914,0.351250572274047,914,0.500557408382148
913,0.0278046572464769,913,0.347018059092654,913,0.503717226186006
912,0.0280265422814577,912,0.34289682880225,912,0.505144676905951
911,0.0280611961728772,911,0.3380546702051,911,0.508452631575204
910,0.0278336079442812,910,0.334014387277025,910,0.510321392311761
909,0.0279573256144586,909,0.330246845338962,909,0.512470375626582
908,0.0276331453221627,908,0.326375986033202,908,0.515916967734115
907,0.0278020078986415,907,0.321489681610469,907,0.517738971629993
906,0.0283549678910808,906,0.31669880113645,906,0.521208287464568
905,0.027959423763729,905,0.313179796944666,905,0.522698383424294
904,0.0282989605277269,904,0.309552388609461,904,0.525035240335472
903,0.0283070834962024,903,0.304929752218551,903,0.525672420374186
902,0.0285214023885422,902,0.301349442425466,902,0.53062399742192
901,0.0281897848936688,901,0.296936379695907,901,0.532064002525253
900,0.0283994031428388,900,0.293077718049385,900,0.535461130107301
899,0.0286501274625959,899,0.288788820452053,899,0.537978193486921
898,0.0287103283747933,898,0.285385881957156,898,0.540949621085492
897,0.0287077011512009,897,0.280610778945816,897,0.543917381793632
896,0.028447546463323,896,0.276843527171927,896,0.545140522385769
895,0.0287692929842045,895,0.275032133687122,895,0.547651354911812
894,0.0296994866280445,894,0.270818200081951,894,0.550550504308653
893,0.0292861843136224,893,0.266543993259577,893,0.553180187709664
892,0.0291123978954721,892,0.262794980375596,892,0.555170864725527
891,0.029253370814606,891,0.258669257213725,891,0.557454570767231
890,0.0297064716525693,890,0.255290656723617,890,0.560562588874204
889,0.0301080499316068,889,0.252018229587735,889,0.563666801524121
888,0.0295065281724895,888,0.248632728546491,888,0.567003585680683
887,0.0297588906397102,887,0.245087629467682,887,0.569449703483968
886,0.0296462987967517,886,0.241004098353018,886,0.571798553558639
885,0.0296317210913486,885,0.237632137159252,885,0.574461877423315
884,0.0301726710193367,884,0.233938224437295,884,0.57792445202323
883,0.0303187351191145,883,0.231125364192059,883,0.580213508641861
882,0.030481619963989,882,0.228390998644814,882,0.582548994682188
881,0.0303522676899706,881,0.224933969008169,881,0.585083023379154
880,0.0300031062408775,880,0.222498394949511,880,0.587947444385899
879,0.0307002654113505,879,0.219045204124118,879,0.591504364277751
878,0.0307753112797353,878,0.216069442595942,878,0.592362381461609
877,0.0300911817755423,877,0.21290670432946,877,0.595032936491377
876,0.0303400257808381,876,0.21042025671147,876,0.597359160770205
875,0.0317198410280285,875,0.207826597424155,875,0.602028256290309
874,0.0319617628443512,874,0.20387167261247,874,0.603694266704943
873,0.0317721693972452,873,0.201168431795033,873,0.606223869788583
872,0.0314256774673772,872,0.199507291083511,872,0.609328792747295
871,0.0321047230029958,871,0.19577851210214,871,0.611222634761626
870,0.0319501998984582,870,0.194916475999814,870,0.614600116217172
869,0.0326271086897852,869,0.191146656281137,869,0.618475183085727
868,0.0326441314456399,868,0.189229760994789,868,0.618546214086798
867,0.0319606483301356,867,0.187273038428097,867,0.622033913329034
866,0.0329022893580231,866,0.184102802716711,866,0.626177675290035
865,0.03241237230462,865,0.183146542376169,865,0.627841616960104
864,0.0325343045464776,864,0.180184094382722,864,0.629371513712084
863,0.0339832599026445,863,0.178226058288616,863,0.631101228015933
862,0.0332322167146355,862,0.176695650828523,862,0.634346394571544
861,0.0334080512716262,861,0.173564825634681,861,0.635097422547245
860,0.0339646450324086,860,0.17242107625268,860,0.637648527150575
859,0.0343596753610744,859,0.169533560567162,859,0.640598065551275
858,0.0333129559334115,858,0.168954847689079,858,0.643257001944816
857,0.0340707744811619,857,0.165763475486964,857,0.647115400962828
856,0.0349895373592342,856,0.166124969847188,856,0.646580354658503
855,0.0337821216156571,855,0.162527898953734,855,0.652467139587077
854,0.0354806023018564,854,0.161255517679251,854,0.654460974759129
853,0.0349346877813837,853,0.161112158571541,853,0.657705299434124
852,0.0343127771696378,852,0.158367056333168,852,0.656970073159157
851,0.0357286478055457,851,0.1569887594843,851,0.659217201135052
850,0.0356508303350663,850,0.154771521691616,850,0.660174521966219
849,0.036785100745428,849,0.154907477430039,849,0.663004610591504
848,0.0369578139296841,848,0.151883930909085,848,0.665277364428878
847,0.0369929623860708,847,0.1519545933678,847,0.663435914338124
846,0.0363897450520464,846,0.150957495336811,846,0.66598355303831
845,0.0376059949406515,845,0.150336173993064,845,0.669244487817827
844,0.0370658897086928,844,0.1504045355022,844,0.674085086702131
843,0.0382122619469616,843,0.148928156337326,843,0.675254123557771
842,0.037439231435112,842,0.147430025297865,842,0.676322799396642
841,0.0381653133265257,841,0.146145602251607,841,0.677580118083914
840,0.038276828122063,840,0.144551138259081,840,0.678507211847525
839,0.0382480774619175,839,0.14495484399749,839,0.681923682173665
838,0.0385928998588655,838,0.144883721206375,838,0.681708969035923
837,0.0395615515859121,837,0.143311445501118,837,0.682332188291511
836,0.0401277681104499,836,0.141949564671877,836,0.685129694799322
835,0.0396972786712619,835,0.141789796873957,835,0.685927561945734
834,0.0392681506014049,834,0.14051881028486,834,0.687622328736194
833,0.0405638003094672,833,0.14003128787468,833,0.687839103058875
832,0.0409856767115072,832,0.138949396733021,832,0.687754366889972
831,0.0410822680458226,831,0.138857296597224,831,0.690009268174865
830,0.0416290754289896,830,0.138623712184052,830,0.689932061940203
829,0.0411752948532151,829,0.137759303494606,829,0.6910334533349
828,0.0412261848788267,828,0.136741068032884,828,0.69122530031761
827,0.0420679586966034,827,0.136254152195076,827,0.692007292732319
826,0.0428261098785056,826,0.13570465751753,826,0.693219903348942
825,0.0427828590157769,825,0.134792505407607,825,0.692971608269682
824,0.0434474091354345,824,0.134807405083503,824,0.693544580190166
823,0.043372258212029,823,0.134299797784481,823,0.693134206670379
822,0.043767153290127,822,0.134087650172998,822,0.693450416806178
821,0.0435780316127122,821,0.133182120597922,821,0.692239011157623
820,0.0443933852083353,820,0.133470483685802,820,0.692762050198154
819,0.0450780956521818,819,0.133198020444022,819,0.694760343129535
818,0.0449039605818035,818,0.131981325572914,818,0.69014120977211
817,0.04625364547529,817,0.132025737708039,817,0.69277592614633
816,0.0462663730804487,816,0.130925437927782,816,0.6897970790907
815,0.0474314042271641,815,0.130607356732962,815,0.688940978894443
814,0.0478378411172398,814,0.130841566130273,814,0.688645317290006
813,0.0474747162766366,813,0.128689472395092,813,0.687118663622156
812,0.0473314276366743,812,0.130308657243127,812,0.688171174599302
811,0.0475347539203805,811,0.129474819915556,811,0.686814548473151
810,0.0489978572345467,810,0.128818721182737,810,0.686257860293852
809,0.0489731400531335,809,0.128482726471333,809,0.681647868446875
808,0.0493587491663877,808,0.127382330760939,808,0.682583477771693
807,0.0501688541547842,807,0.127001770454114,807,0.680972789678639
806,0.0504433441285416,806,0.12744283340915,806,0.677583598768948
805,0.0514038540734948,805,0.126463678257755,805,0.676483214145546
804,0.0527264259659431,804,0.125263226242146,804,0.675327201022028
803,0.0524853956754314,803,0.125293830134474,803,0.672801027717698
802,0.0523428098706308,802,0.124654325707013,802,0.671643185075325
801,0.0531878801061248,801,0.125359155588472,801,0.665998608678323
800,0.0533406656903638,800,0.124376788066219,800,0.665738687259819
799,0.0547722772687275,799,0.124162230893968,799,0.659932908748377
798,0.0551318004439535,798,0.123218453358534,798,0.659758564496774
797,0.0545758668138391,797,0.122038959775355,797,0.655266919145733
796,0.055884948837536,796,0.123548402913699,796,0.653431065744678
795,0.0572724695920726,795,0.122658244241961,795,0.650384410163296
794,0.0571163756694752,794,0.122611381048587,794,0.64818122848651
793,0.0569963461274114,793,0.121919253269143,793,0.643053661970721
792,0.0575223779944382,792,0.121285584943586,792,0.641424947161276
791,0.0584877020524424,791,0.120804777344706,791,0.636978800678019
790,0.058798088529174,790,0.121297735171611,790,0.634195820668911
789,0.0593381490761989,789,0.120463035381085,789,0.629980766599933
788,0.0601410278709546,788,0.120343625801703,788,0.627085745833974
787,0.0607026771737268,787,0.119047570767368,787,0.622459632462022
786,0.061575344229958,786,0.118977672568352,786,0.617431518281944
785,0.0625256337427833,785,0.119752526636854,785,0.613479916477576
784,0.0626843422896093,784,0.119126811410033,784,0.610055173999552
783,0.0635315190983363,783,0.117786945209219,783,0.606497253154553
782,0.0641612738135566,782,0.118481252710071,782,0.602773865581347
781,0.0644628609934814,781,0.118228327490974,781,0.598190348793686
780,0.0643119961981674,780,0.118099134111999,780,0.593100060263072
779,0.0649519029698293,779,0.117308772389054,779,0.588457781063511
778,0.0655352849014326,778,0.117191481277276,778,0.583623230339347
777,0.0661078165640208,777,0.117783210625682,777,0.580488162619229
776,0.0661684966722213,776,0.117402587386306,776,0.574056581706723
775,0.0666668885855178,775,0.116757586326209,775,0.56965708491091
774,0.0683222289491387,774,0.117189650444237,774,0.564900116142041
773,0.0677426274542186,773,0.116591618571884,773,0.560548990466683
772,0.068710889625784,772,0.115998162112862,772,0.555164312012922
771,0.0688291359534801,771,0.116334444767229,771,0.551320644346152
770,0.0698605379849864,770,0.116330181257351,770,0.54541453671539
769,0.0704835286401676,769,0.116213323243802,769,0.540547089605966
768,0.0699051423508256,768,0.115703900168002,768,0.535659739379768
767,0.0709349303666172,767,0.115563734495316,767,0.530551755681874
766,0.0706139537554683,766,0.115576299925817,766,0.525462744178387
765,0.0711897782838859,765,0.115526344356672,765,0.520048966790164
764,0.0711433036557868,764,0.115455051938417,764,0.516675788559316
763,0.0717112509555302,763,0.115272467039844,763,0.510558982123901
762,0.0721754239334909,762,0.115759080218045,762,0.505573389171731
761,0.0731082321423241,761,0.114925234167714,761,0.500617491967434
760,0.0728195926478796,760,0.115623051924412,760,0.495841016338707
759,0.0728161335669584,759,0.115528674813251,759,0.489705971157215
758,0.0730732213957024,758,0.115098900254286,758,0.484779901645706
757,0.0728827180606999,757,0.115612545798454,757,0.479626280126542
756,0.0740295106901954,756,0.115002680393109,756,0.474402154234111
755,0.0738199631049718,755,0.115307978651106,755,0.47026001897748
754,0.0740752821174623,754,0.115345349993695,754,0.464611824307418
753,0.0738591151659797,753,0.115408453082507,753,0.460360441766257
752,0.0735631382503659,752,0.115638929831788,752,0.455452523800394
751,0.0738182449135503,751,0.115069782387667,751,0.450010605889286
750,0.0738439264474134,750,0.115762053989953,750,0.445678241900542
749,0.0743121057971943,749,0.116271240830497,749,0.440871356975813
748,0.0741668394464488,748,0.115621464165601,748,0.436748310429838
747,0.0743569854177794,747,0.116200265789501,747,0.431026190929487
746,0.0737503817890977,746,0.116251077055898,746,0.427543240907611
745,0.0745725090609606,745,0.115944371578136,745,0.421963611165867
744,0.0749419195683423,744,0.116030317902008,744,0.418169335124273
743,0.0749011318449904,743,0.116364290508378,743,0.414639071357076
742,0.0749722206209809,742,0.116841525612591,742,0.40978972230682
741,0.0747783611560227,741,0.116310420774,741,0.404522739994463
740,0.0754250193625395,740,0.116687784772088,740,0.401104609178038
739,0.0755746196183589,739,0.116890616272651,739,0.397228107078425
738,0.0756469279395108,738,0.116834140472432,738,0.392758059704023
737,0.0765389088212575,737,0.117482478386641,737,0.38945234936362
736,0.0768578693713974,736,0.117039175576166,736,0.384771764026787
735,0.0769219553586979,735,0.118025176139124,735,0.381922128583678
734,0.0772303120978044,734,0.117955068679545,734,0.378463247095855
733,0.0773061132729848,733,0.118384926587561,733,0.375079459770282
732,0.0777642635941948,732,0.118317106502289,732,0.371916040620058
731,0.0781572559475572,731,0.118648828785696,731,0.368050657187513
730,0.0783763485700737,730,0.118575185302337,730,0.364616861305736
729,0.0786155609743057,729,0.119433455996311,729,0.361875618265682
728,0.0792422376715736,728,0.119265713217569,728,0.359353587136189
727,0.0799220920199123,727,0.119800105596202,727,0.356367984906317
726,0.0803892728553657,726,0.119944852713819,726,0.35360531280704
725,0.0810675883442467,725,0.120570655090056,725,0.351305061860086
724,0.0816605437270512,724,0.121267445799094,724,0.348343410907137
723,0.0817437464857695,723,0.121007557416353,723,0.345838749823925
722,0.0823813403742489,722,0.121441236252755,722,0.344069794867055
721,0.0834084289355862,721,0.12194657169364,721,0.341366379677048
720,0.0836556397949638,720,0.122399032286419,720,0.339044265534426
719,0.0844739542143307,719,0.122966190802861,719,0.337201898371651
718,0.0850902228187627,718,0.123259296555691,718,0.335304199085012
717,0.0854710880759103,717,0.123924639319738,717,0.333408564403505
716,0.0867499157967967,716,0.124165400578631,716,0.331394228002209
715,0.0873199201715133,715,0.124794558442398,715,0.32981688001642
714,0.0878356274457919,714,0.125359708357664,714,0.328739148611972
713,0.0885254924103945,713,0.125631929011277,713,0.326886701114274
712,0.0892299974004119,712,0.126127181087587,712,0.324879456895703
711,0.0899534471148581,711,0.127118966504093,711,0.323884882731365
710,0.0906390325573318,710,0.12753691910075,710,0.323157699581482
709,0.0913039166865885,709,0.127792511495642,709,0.322008914778658
708,0.092462832677011,708,0.12842392279963,708,0.320942557844674
707,0.0926179069898945,707,0.129448453697007,707,0.320507677450089
706,0.0938454940105487,706,0.130279829369662,706,0.319671185860859
705,0.094429494713997,705,0.130726894075797,705,0.319014957181713
704,0.0955181504747399,704,0.131699277732939,704,0.318933807535021
703,0.0962689931904126,703,0.131990025222732,703,0.318117758961637
702,0.0971678102077379,702,0.132869729333573,702,0.3176674063355
701,0.0974635098809378,701,0.134210547063687,701,0.317575536327913
700,0.0988915610875734,700,0.135152217597252,700,0.317714801215427
699,0.0993923684113489,699,0.136064630577576,699,0.317314931376795
698,0.100047365699034,698,0.136561189058318,698,0.317409918205616
697,0.101048246915218,697,0.13747433198778,697,0.317740060872075
696,0.101114501164841,696,0.138771059533928,696,0.318411957969302
695,0.102245189740215,695,0.140181615962574,695,0.31889892971654
694,0.102929572466869,694,0.140772459634448,694,0.31891584227639
693,0.104214766373311,693,0.142165121824265,693,0.319932587124652
692,0.104507303251253,692,0.143264532110781,692,0.320272013689079
691,0.10522831076482,691,0.144752239767011,691,0.321108363125318
690,0.106066826922509,690,0.145891983569122,690,0.322162925224822
689,0.106642820304286,689,0.14709072936699,689,0.32341237773639
688,0.10727975554153,688,0.148611925809287,688,0.324722976700194
687,0.108429887492278,687,0.150002425755368,687,0.325660019849155
686,0.10912512564154,686,0.151242068391422,686,0.32724351448494
685,0.109822345225899,685,0.152883675986688,685,0.328572418264161
684,0.110598519383609,684,0.154503284634638,684,0.330220460103572
683,0.110807245993079,683,0.155779796613866,683,0.331926335652214
682,0.111793648729804,682,0.15734201627617,682,0.333740382678737
681,0.112344165885055,681,0.15894641632502,681,0.335547800636359
680,0.112833582592421,680,0.160687199323092,680,0.337083609695176
679,0.113616439820405,679,0.162627342098121,679,0.33911428438808
678,0.114647168990765,678,0.16439809076346,678,0.341315252979518
677,0.115643220344681,677,0.166489765759962,677,0.3437490146793
676,0.115632342118906,676,0.168252874056061,676,0.345499540348867
675,0.116767341148608,675,0.170038064383124,675,0.348601659961115
674,0.117704656011,674,0.171807246227127,674,0.351051009871718
673,0.118200290417949,673,0.174118833504015,673,0.353912962803273
672,0.11909204181888,672,0.17662263464224,672,0.356864662554124
671,0.119523981552969,671,0.178498466295641,671,0.359930735934341
670,0.120303465655732,670,0.180790457885953,670,0.362485115542148
669,0.121098514345152,669,0.182734290478718,669,0.365640589809282
668,0.121910101809808,668,0.185283368535484,668,0.368800852593189
667,0.122945164083665,667,0.187812829858973,667,0.372315879980391
666,0.123631944606452,666,0.19035117132653,666,0.375914887309858
665,0.124328360425291,665,0.193082951899206,665,0.3798873530284
664,0.125345198399538,664,0.195731262406305,664,0.383573933066399
663,0.1262732564872,663,0.198320290477249,663,0.387462512454238
662,0.127117162714721,662,0.201305563136575,662,0.39136232018396
661,0.127898279535993,661,0.204570549313078,661,0.396025205687165
660,0.128665207717036,660,0.207175642564115,660,0.40004577778076
659,0.129709082202214,659,0.210196669096307,659,0.404358020221671
658,0.130681950050645,658,0.21325848366462,658,0.408933185370634
657,0.131509175018055,657,0.216560799555925,657,0.413956666408846
656,0.132441383143918,656,0.219742716889639,656,0.418948011144611
655,0.133414907435653,655,0.223416278351356,655,0.423862450525121
654,0.134441310639196,654,0.226730942013561,654,0.428868786194245
653,0.135407418040585,653,0.230335250259889,653,0.434206171557448
652,0.136513085035167,652,0.234159554162478,652,0.439787729179341
651,0.137176127764436,651,0.237871875813271,651,0.445680770103679
650,0.138301795394075,650,0.24183822976938,650,0.451616539415267
649,0.13942346529668,649,0.245814151372953,649,0.457471278911308
648,0.140280576397742,648,0.249991892762913,648,0.463450384633375
647,0.141391458817685,647,0.254158808199045,647,0.470079656474773
646,0.142289140795241,646,0.258654699670523,646,0.476729750650891
645,0.143385876449453,645,0.263233021916361,645,0.482958073272941
644,0.14432977424925,644,0.268164520088086,644,0.490393529363026
643,0.145397382394744,643,0.272769987525594,643,0.497425866740108
642,0.146352084744754,642,0.277196138352299,642,0.504503724356582
641,0.147293919004206,641,0.282877154443052,641,0.512713906705933
640,0.148264348900997,640,0.288250992655323,640,0.520543974469901
639,0.149251662115095,639,0.293407289003982,639,0.528655508909924
638,0.150235627473152,638,0.299174369425595,638,0.536748215750513
637,0.151156233279218,637,0.304257174836587,637,0.544947653126756
636,0.151986145444465,636,0.310636255716253,636,0.554060592792525
635,0.153272031989012,635,0.316719734465018,635,0.562830576957174
634,0.153840019115577,634,0.322798510476561,634,0.571549993364724
633,0.155029936879269,633,0.32910568930502,633,0.581127675416392
632,0.155896979628864,632,0.335807860292302,632,0.590992102598892
631,0.156893348036138,631,0.342434171755561,631,0.600953121198595
630,0.157878975385736,630,0.349765018768248,630,0.610958336137209
629,0.158887967825725,629,0.357082141450513,629,0.621492219327727
628,0.159392877423602,628,0.364263418009746,628,0.63246958683469
627,0.160471729109224,627,0.37170444001471,627,0.643015912563696
626,0.161588078363035,626,0.379509295175422,626,0.654163384563145
625,0.162420577098028,625,0.387840605481207,625,0.666147693682497
624,0.16307862272863,624,0.396280134232567,624,0.678041629138629
623,0.164414721960088,623,0.40476505563393,623,0.690150341283966
622,0.164883870597316,622,0.413669409504385,622,0.702622127617521
621,0.16644195165793,621,0.422567245276417,621,0.715788993419585
620,0.167191023380282,620,0.432279596194875,620,0.728193921262544
619,0.168249441970685,619,0.442098196752235,619,0.741988838588163
618,0.169482044842477,618,0.451671647461334,618,0.755670801817363
617,0.17021811008189,617,0.462178993120868,617,0.769463717697703
616,0.171374923561858,616,0.472736020591493,616,0.783747995199307
615,0.172433743659643,615,0.483401783775199,615,0.79885180949896
614,0.17324009670078,614,0.494175336422472,614,0.813899277441775
613,0.174451647397741,613,0.506176731019473,613,0.829990390547842
612,0.175541155426696,612,0.517669651515385,612,0.845468101649775
611,0.176404164849925,611,0.529959870106234,611,0.861970734304806
610,0.177405184347334,610,0.541131993424483,610,0.877401738483749
609,0.178329045039351,609,0.553118063688684,609,0.892943937163087
608,0.179412332920314,608,0.566318572937272,608,0.910988071108571
607,0.18063932714057,607,0.580695905931636,607,0.929155847039957
606,0.1815922789254,606,0.594500725647212,606,0.947453611696831
605,0.182718401506434,605,0.607051789948949,605,0.964341418822725
604,0.183735955729765,604,0.619731283377625,604,0.981138202795357
603,0.18456295575867,603,0.63431483133982,603,0.999536008991484
602,0.185502503166326,602,0.649244483892529,602,1.01899991043252
601,0.186401182528926,601,0.664412570895111,601,1.03827930890981
600,0.187228418058212,600,0.679609586677131,600,1.05827368507467
599,0.188261877970828,599,0.695776213702828,599,1.07939406790138
598,0.188987857934807,598,0.711210910105025,598,1.09894334533202
597,0.189895269134259,597,0.725474341347131,597,1.11700810573919
596,0.190701845302334,596,0.740900680613945,596,1.13715536905289
595,0.191708715052594,595,0.757645330954692,595,1.15833409611634
594,0.192276217637359,594,0.773487193448208,594,1.17875113993142
593,0.193013183907646,593,0.790069689047006,593,1.19951739276523
592,0.193951345970892,592,0.807366508039378,592,1.22160134916115
591,0.19461209972419,591,0.824422691573601,591,1.24275803823567
590,0.195599534811862,590,0.840568171749144,590,1.26328758867273
589,0.196054922197022,589,0.857392959907618,589,1.28490260494016
588,0.197011338210678,588,0.873906838510368,588,1.30631744746679
587,0.197922825562405,587,0.891526722764746,587,1.32786876807201
586,0.198672798468231,586,0.908814804455017,586,1.3494608202727
585,0.199795393899176,585,0.925822546660433,585,1.37066945697305
584,0.201179909175782,584,0.942816396080285,584,1.39253219250095
583,0.20185641721351,583,0.95963738738544,583,1.41285826151072
582,0.203132965207696,582,0.976251766837694,582,1.4350343682375
581,0.204317672188267,581,0.993252217016477,581,1.45500802240884
580,0.205449489465307,580,1.01017827236176,580,1.47670470017043
579,0.206624044742569,579,1.02653178404258,579,1.49829386413222
578,0.207284102073237,578,1.04295131598195,578,1.51770395847331
577,0.20842761886891,577,1.05908267842171,577,1.53841273946743
576,0.209429146849782,576,1.07490369249999,576,1.5596650903821
575,0.210501074016531,575,1.0900352124454,575,1.57786149535998
574,0.211816646622347,574,1.10530253754283,574,1.59648120666682
573,0.21265948774402,573,1.11983460786538,573,1.61821086137091
572,0.2137949457957,572,1.13429275332819,572,1.63215889270053
571,0.215007737146585,571,1.14755019408702,571,1.64947899466706
570,0.21604534696841,570,1.16247462042235,570,1.66997856855737
569,0.217039869745575,569,1.17539510617335,569,1.68626638415356
568,0.218330279124208,568,1.18906266304756,568,1.70252038881719
567,0.218937110356689,567,1.20095060419557,567,1.71818493071359
566,0.219969341741873,566,1.21098081335513,566,1.7305240232836
565,0.221132885360021,565,1.22346965340847,565,1.74861875654318
564,0.221865299694111,564,1.23503124861208,564,1.76230944968782
563,0.223390775823115,563,1.24502550060549,563,1.77357597770311
562,0.224079783541664,562,1.25516281422318,562,1.78678372774125
561,0.224947482436108,561,1.26387590090983,561,1.79662713570623
560,0.226201802076638,560,1.27334017635658,560,1.80959373660171
559,0.227306248836944,559,1.28009039661734,559,1.81854697198974
558,0.228269694810228,558,1.28933315473502,558,1.82796612547319
557,0.229385960510719,557,1.29461586846796,557,1.83645024689932
556,0.230547136080974,556,1.3012605649348,556,1.84430167853913
555,0.231350732738746,555,1.30657290407196,555,1.85025186453261
554,0.232750926114963,554,1.3114053387861,554,1.85649195167692
553,0.233693375650314,553,1.31566373330474,553,1.86200742877701
552,0.235287121101879,552,1.32030749581849,552,1.86652479429398
551,0.236865477497433,551,1.32200383456005,551,1.87101390005119
550,0.238073498336515,550,1.32444366451959,550,1.87268439932533
549,0.239949760609914,549,1.3261658337586,549,1.87741653687043
548,0.241069166341093,548,1.32634542395789,548,1.87310646517538
547,0.242407949696703,547,1.32716187120542,547,1.87396402345122
546,0.244186417557767,546,1.32632433017724,546,1.87392819877658
545,0.24603381848579,545,1.32554968092864,545,1.87173488602935
544,0.248001954398257,544,1.32445681238957,544,1.87013838639622
543,0.24973106385156,543,1.32095622347654,543,1.86811189215028
542,0.251429350986522,542,1.31842449339327,542,1.86320695903001
541,0.253009645249833,541,1.31501761110143,541,1.85974536519995
540,0.25493363987626,540,1.31098562736259,540,1.85461822894494
539,0.257027709223459,539,1.30496880909531,539,1.84507436875028
538,0.259283983727723,538,1.29978049302969,538,1.83855360628433
537,0.261117533046845,537,1.29381630768765,537,1.83325986475335
536,0.2631353195839,536,1.28806489877703,536,1.82537805095321
535,0.265473049797764,535,1.27973856503828,535,1.81341766288693
534,0.267339966712995,534,1.27211223075422,534,1.80557182087325
533,0.269229474605117,533,1.26507014211061,533,1.7978440290957
532,0.27152718593381,532,1.25600456861789,532,1.7852750896384
531,0.273832158194631,531,1.24626032828696,531,1.77382117951532
530,0.276057038202065,530,1.23631256729322,530,1.76266610045967
529,0.277865112551271,529,1.22823703724281,529,1.75279000452189
528,0.279684196042928,528,1.21926725683008,528,1.74059883938012
527,0.282191943887227,527,1.20810541948615,527,1.72602373235712
526,0.284537328516593,526,1.19725479749754,526,1.71459208079918
525,0.286536178456324,525,1.18662344799019,525,1.70263095431484
524,0.289062214940757,524,1.17451749023539,524,1.68666377381278
523,0.291651311813616,523,1.16350333637136,523,1.6729430420791
522,0.294062138288745,522,1.15205718273782,522,1.65815635436052
521,0.296303456150101,521,1.13972605610649,521,1.6413932903829
520,0.298931167418108,520,1.12706293112347,520,1.62780496085721
519,0.301260027516043,519,1.11614768475616,519,1.61509237568598
518,0.303762893312663,518,1.10501282729638,518,1.6000123535441
517,0.306412758422159,517,1.09138345270393,517,1.58317824202747
516,0.309271752766338,516,1.07966671092598,516,1.56750772759112
515,0.311741061927322,515,1.06623527569073,515,1.55296152096613
514,0.314565492914264,514,1.05382759107701,514,1.53606185577917
513,0.317355998401423,513,1.041211078059,513,1.52041180427801
512,0.319840452997669,512,1.02921851784054,512,1.50542150344611
511,0.32259220367183,511,1.01677650996191,511,1.48945213227951
510,0.325368208633501,510,1.00441547138135,510,1.47337991606385
509,0.328123717476673,509,0.991869019105375,509,1.45821944581209
508,0.330842392905269,508,0.979827898231183,508,1.44313890219232
507,0.333556878967568,507,0.967721638479505,507,1.42793510057915
506,0.336454450554531,506,0.954752901947188,506,1.41070408012955
505,0.339330572079326,505,0.943304074604393,505,1.39614079277643
504,0.34208352589854,504,0.931803357434963,504,1.38114505874741
503,0.344876291347148,503,0.919932776962491,503,1.36562747829955
502,0.347813390162003,502,0.908509915422284,502,1.34982800422315
501,0.350805060419645,501,0.897270126862206,501,1.33627014062065
500,0.353368804928519,500,0.886602802578482,500,1.32178119191467
499,0.356091736542907,499,0.876098434681757,499,1.30784212491479
498,0.358667050535117,498,0.865729406853539,498,1.29399602564345
497,0.361219695452676,497,0.8563495080456,497,1.28154036390954
496,0.364105616210523,496,0.84701760465348,496,1.26884993527378
495,0.366768970393734,495,0.837192283053861,495,1.25562154935391
494,0.369632523624326,494,0.827676936301566,494,1.24332486444905
493,0.37225789661419,493,0.81822923641134,493,1.23128482282325
492,0.374588105061967,492,0.811844782604687,492,1.22189702855209
491,0.376918058878715,491,0.80458827728217,491,1.21214427539595
490,0.379760293839124,490,0.796026307408127,490,1.20083261617345
489,0.382617629012145,489,0.788944866587956,489,1.19105483225707
488,0.38491750584682,488,0.782953888904222,488,1.18284615070623
487,0.387505629712979,487,0.777314038475297,487,1.1748344163099
486,0.390456088012351,486,0.770095477265488,486,1.16523760818606
485,0.393140985266464,485,0.76457020217586,485,1.15753178318565
484,0.395201602450686,484,0.760446468988355,484,1.15184103037632
483,0.397423819302764,483,0.756095569566091,483,1.14553254266471
482,0.400099983223967,482,0.751255772551379,482,1.13870180610935
481,0.402619026222653,481,0.746576899596761,481,1.13181836212746
480,0.404958176844248,480,0.742919372823731,480,1.1264250867772
479,0.40737219087198,479,0.738761552645726,479,1.12110433876888
478,0.409596900689524,478,0.735749082916753,478,1.11657795724943
477,0.411645946844344,477,0.732732708318226,477,1.11208092458517
476,0.41382729505912,476,0.729232623992952,476,1.10763126614946
475,0.415916039748773,475,0.727117543525028,475,1.10397450161299
474,0.417979297632936,474,0.724630864679834,474,1.09984039027612
473,0.419823188299751,473,0.722226544264655,473,1.0970028581035
472,0.421754166021438,472,0.720410853571418,472,1.09390075298959
471,0.42344941057397,471,0.71849139148644,471,1.09130734252872
470,0.425167765639234,470,0.716917572543715,470,1.08861487001038
469,0.426872298029835,469,0.715109825564723,469,1.08613294637099
468,0.428416387440339,468,0.714008639063231,468,1.08400473251346
467,0.429990266108432,467,0.712927044675993,467,1.0824833828485
466,0.431318211126743,466,0.711549891022671,466,1.08055795780398
465,0.432859140634621,465,0.710497786975988,465,1.0790903828617
464,0.434187423407163,464,0.709677203528665,464,1.07766473998408
463,0.435612582967169,463,0.709034706756915,463,1.07671125494374
462,0.436953220708992,462,0.708393522832678,462,1.07549346809784
461,0.43818446836048,461,0.708011037210021,461,1.07447735542974
460,0.439278119930853,460,0.707660181875725,460,1.07381151795272
459,0.440640134560688,459,0.707389935208564,459,1.07340104073866
458,0.441853074069094,458,0.707073799388767,458,1.0726334919067
457,0.443256996839793,457,0.707043734608833,457,1.07186680086026
456,0.444463122759598,456,0.70693766739433,456,1.07219409257213
455,0.445893553076278,455,0.706970097876446,455,1.07182850754074
454,0.447292566023767,454,0.707162489428139,454,1.0716797568592
453,0.448927977693398,453,0.707382908200545,453,1.07183938815055
452,0.450134360886636,452,0.70738429379876,452,1.07181377143014
451,0.4515224142022,451,0.707788054046363,451,1.07181033562131
450,0.453137522269855,450,0.708279918655969,450,1.07183404325553
449,0.454651646120785,449,0.708437239924155,449,1.07221338867239
448,0.45614716573617,448,0.708985863262279,448,1.07305809842246
447,0.45764083624154,447,0.709574967485359,447,1.07346744672541
446,0.459162648055738,446,0.710070587350461,446,1.07417033233241
445,0.460692204004164,445,0.710587810545077,445,1.07474846565883
444,0.462415519170051,444,0.711185183530461,444,1.07568535915066
443,0.46389549915551,443,0.711938374536549,443,1.07582338982484
442,0.465345204527854,442,0.712721295173387,442,1.07666361436568
441,0.466919827206491,441,0.713258606965274,441,1.07742084531591
440,0.468395587644411,440,0.713941515157638,440,1.0778160583291
439,0.470005087769146,439,0.71476708255276,439,1.07919109577027
438,0.47150721757574,438,0.715794946882608,438,1.07989697419654
437,0.47311423136539,437,0.716467203781361,437,1.08112340582775
436,0.474891939990206,436,0.717708380614548,436,1.08242321228744
435,0.476598685621882,435,0.718241009927888,435,1.08344897266248
434,0.478259332751028,434,0.719280631356904,434,1.0844183647057
433,0.480309590899815,433,0.720338280271692,433,1.08561213075063
432,0.482140627251812,432,0.721414559601018,432,1.08701579153145
431,0.484284014248378,431,0.722398357851609,431,1.08789160065451
430,0.486208001556551,430,0.723388976393888,430,1.08899109555384
429,0.488502606986796,429,0.724446396475628,429,1.09027139926215
428,0.490742645192821,428,0.725616169684717,428,1.09210788543184
427,0.49309777434606,427,0.726686827757961,427,1.09310123158642
426,0.495392397832856,426,0.7279867275673,426,1.09464139066385
425,0.497843927825549,425,0.729295526260699,425,1.09639475281172
424,0.499990261852717,424,0.730231740159907,424,1.09763409836997
423,0.502816251129693,423,0.73164601338426,423,1.09875020170812
422,0.505456037575549,422,0.733133582851496,422,1.10085829569792
421,0.508160468660869,421,0.734103165373231,421,1.10236572098928
420,0.510671051225124,420,0.735359263827937,420,1.10411224241443
419,0.513703591796951,419,0.736919443366578,419,1.10593114086473
418,0.516683274159357,418,0.738503109941149,418,1.10760290997641
417,0.5197235436414,417,0.739675381984718,417,1.10945088060815
416,0.522816045362677,416,0.741264761549546,416,1.11080109866473
415,0.525987993662894,415,0.742761258164502,415,1.11266032492562
414,0.529422045464813,414,0.744372804987423,414,1.1147038583261
413,0.53275095338639,413,0.745841606611961,413,1.11663996143566
412,0.536467995027488,412,0.74765789026283,412,1.1193263476682
411,0.539852550932639,411,0.748989268529422,411,1.12111374696045
410,0.543424103742325,410,0.751001315257167,410,1.12297728864844
409,0.547146246484765,409,0.752502225413016,409,1.12490502575728
408,0.551327784216608,408,0.754043271646393,408,1.12720463778244
407,0.555219664631277,407,0.755739533266255,407,1.12954374235433
406,0.559327249461207,406,0.757727674656848,406,1.13155619351084
405,0.563427255753127,405,0.759505477804805,405,1.13379424494968
404,0.567662560357524,404,0.761037687922786,404,1.13553134330633
403,0.572131622216843,403,0.762910466188125,403,1.13839192655747
402,0.577409265351931,402,0.764724489300638,402,1.14041129200166
401,0.582211354907553,401,0.76669925898173,401,1.14286009184896
400,0.587345109561627,400,0.768181090492003,400,1.14506846405176
399,0.592542707704753,399,0.770116174393196,399,1.14741291426546
398,0.59810528068839,398,0.771876595806546,398,1.15010214110575
397,0.60414029564406,397,0.774130030966334,397,1.15214067903909
396,0.610187450672381,396,0.775899298978056,396,1.154682214134
395,0.616486976314245,395,0.777638338175783,395,1.15687617582985
394,0.62243817245746,394,0.779470433498723,394,1.15918625508839
393,0.62918517902731,393,0.781102183927843,393,1.16162279812739
392,0.635826640321042,392,0.783234379559201,392,1.16396975456979
391,0.642953080020884,391,0.784792625856876,391,1.16617715154122
390,0.650732378342226,390,0.786449877408224,390,1.16883655131626
389,0.658207454634003,389,0.788779981348729,389,1.17136655035837
388,0.666383214265152,388,0.790657152000213,388,1.17392209563034
387,0.674287013880743,387,0.792569404552117,387,1.17614098884793
386,0.682873699103711,386,0.793908761047347,386,1.17849722662593
385,0.69157174202339,385,0.796168387293782,385,1.18111371510411
384,0.700814141179032,384,0.797577008576648,384,1.18353819094969
383,0.710380641385761,383,0.799775650308683,383,1.18584203502674
382,0.721032148784207,382,0.801394995787692,382,1.1879590457936
381,0.731374511219822,381,0.803197530318381,381,1.19060398255416
380,0.743084959127843,380,0.804693229479723,380,1.19310796693827
379,0.755622357106468,379,0.806707125012387,379,1.19559910837667
378,0.767576662823878,378,0.808085170909036,378,1.19789389794722
377,0.779392818912172,377,0.809653226437425,377,1.19965956863528
376,0.792866700423519,376,0.811457107147673,376,1.20240191680437
375,0.806726822689197,375,0.813456398572887,375,1.20448717498603
374,0.820910928824225,374,0.815005411253574,374,1.2063814862392
373,0.835557268214322,373,0.816751789038276,373,1.20906043509746
372,0.849148727965044,372,0.817835992514779,372,1.21080299535504
371,0.861758999538349,371,0.819273299250759,371,1.21335168739156
370,0.87480955647663,370,0.820909814816651,370,1.21546491771907
369,0.887301420306148,369,0.822381078368625,369,1.21722834939456
368,0.898529865666177,368,0.824286521083886,368,1.21914638424963
367,0.908374032411438,367,0.825151170482936,367,1.22111139285187
366,0.916905501029733,366,0.826558149687475,366,1.22271672515372
365,0.924345473760429,365,0.828019045245291,365,1.22484976940269
364,0.930619474390187,364,0.828964794117892,364,1.22687360069696
363,0.935791861246781,363,0.829958934223313,363,1.22850665749066
362,0.938659192820326,362,0.83167937935905,362,1.23004111930075
361,0.941150850072973,361,0.832360663185585,361,1.23155162731746
360,0.942672975305033,360,0.83404977163447,360,1.23313409756527
359,0.94379275623842,359,0.834652478585753,359,1.23547904375844
358,0.943846235169649,358,0.835669845739293,358,1.23649626445059
357,0.942767269769795,357,0.837284284200743,357,1.23840791200007
356,0.94202365121621,356,0.838291876890048,356,1.23963294534255
355,0.940335188464578,355,0.839241695539197,355,1.24163057956565
354,0.939061703936846,354,0.84064775299672,354,1.24348825450733
353,0.937321082630316,353,0.841800378079447,353,1.24506105536321
352,0.935349343862745,352,0.843322976442635,352,1.24677579931831
351,0.933230443377492,351,0.844425919958389,351,1.24843851175613
350,0.932016050822898,350,0.845968615819388,350,1.25055470044627
