1100,0.0481610955739096
1099,0.046034253710329
1098,0.0453357943420791
1097,0.0420313420060944
1096,0.0372536909383181
1095,0.0463418249152383
1094,0.0432783878885865
1093,0.0449753575646229
1092,0.044502782618408
1091,0.0468422986120547
1090,0.0458376121466441
1089,0.0418876142686595
1088,0.043556511252947
1087,0.0400108382290512
1086,0.0433729447242275
1085,0.0452210735443578
1084,0.0457791892966261
1083,0.0436303774710025
1082,0.0467461474636365
1081,0.0414356424585024
1080,0.0435723366265142
1079,0.0449332413986481
1078,0.0452147537199797
1077,0.0437497748188487
1076,0.0417764510651356
1075,0.0433460857437963
1074,0.0446048926122387
1073,0.0446436777547915
1072,0.0457873007143742
1071,0.0449590216343387
1070,0.0434680085377948
1069,0.0479730577387354
1068,0.0445424764602442
1067,0.0475067410960977
1066,0.0469511610610369
1065,0.0479175843481916
1064,0.0456715691506865
1063,0.0453154222205261
1062,0.0453649606082612
1061,0.0442978606518078
1060,0.0464061421140654
1059,0.0472742177762903
1058,0.0465569345891942
1057,0.0465666742295398
1056,0.0458316573162615
1055,0.0472459331420917
1054,0.0456029903196549
1053,0.0475407899098495
1052,0.045119651468683
1051,0.0462101671038177
1050,0.046817876798388
1049,0.0458484288589981
1048,0.0475255990151268
1047,0.0479355350972281
1046,0.0486078491481828
1045,0.04738336178012
1044,0.0482427784543389
1043,0.0481942123121905
1042,0.0482964996855995
1041,0.0477999833825674
1040,0.0488579469882888
1039,0.0495259180206287
1038,0.0475530065471682
1037,0.0487493585699392
1036,0.0497874314965852
1035,0.0504814039227589
1034,0.0504868413085067
1033,0.0498146627919527
1032,0.0505878087742995
1031,0.0508797344374794
1030,0.051024082324175
1029,0.0510466746797712
1028,0.0515234843880529
1027,0.0511860687221569
1026,0.0527799739449405
1025,0.0528985512628762
1024,0.0523267492662462
1023,0.0539511443867763
1022,0.0540174486284004
1021,0.0540396988717381
1020,0.0539175271379327
1019,0.0550808415692367
1018,0.0559595581913979
1017,0.056128580763714
1016,0.0565027318168386
1015,0.0566975086739832
1014,0.0581987585348003
1013,0.0582901077392389
1012,0.0589005623947852
1011,0.0593209077735202
1010,0.0601803039295009
1009,0.0597329870863163
1008,0.060992159976644
1007,0.0614729530927674
1006,0.0623113436685291
1005,0.063144619970476
1004,0.0644608791460371
1003,0.0648478111112735
1002,0.0661497762710195
1001,0.0666202918704385
1000,0.067607889519914
999,0.0687683862551856
998,0.0689463525955952
997,0.0709232875813613
996,0.0721942224835974
995,0.0723907236735374
994,0.0738123233416282
993,0.0746949448677333
992,0.0753210964644404
991,0.0767638586834183
990,0.077452743053043
989,0.0784430468329425
988,0.0795017600970736
987,0.0801943818491397
986,0.0818757225672875
985,0.0833013865916717
984,0.0841871220706129
983,0.0864928189700585
982,0.0872400726092604
981,0.0888717733043911
980,0.0901052387341864
979,0.0908078462568887
978,0.0921118856558664
977,0.0933315585374758
976,0.0953858650252113
975,0.0967758408761647
974,0.0982187000130033
973,0.0999139217260898
972,0.101031554267963
971,0.102358381353908
970,0.104599348113575
969,0.106583260952734
968,0.107732907562952
967,0.109452462619869
966,0.110867086762263
965,0.113072738170372
964,0.115414497144657
963,0.116145435532618
962,0.118479076381047
961,0.120344377132338
960,0.121978588194948
959,0.123680501137416
958,0.124386887891797
957,0.126149054654623
956,0.128119175964066
955,0.129921964018779
954,0.13330134844925
953,0.133988222920838
952,0.136483771489454
951,0.137821020422202
950,0.140128748584621
949,0.141527018433576
948,0.14371969424581
947,0.14631209284672
946,0.149228045994926
945,0.150971787358405
944,0.153474485972091
943,0.15521530060785
942,0.158621652743545
941,0.161547822684524
940,0.162747404300718
939,0.165440812475556
938,0.167873640210849
937,0.170967474086913
936,0.172934498372042
935,0.176302216210169
934,0.179778442189399
933,0.182808380979577
932,0.184687179326972
931,0.188406497560821
930,0.190667070332247
929,0.193876098643166
928,0.196607700815
927,0.200352957095684
926,0.203488575737304
925,0.206892732467383
924,0.209440802706122
923,0.212873824142639
922,0.21623274059856
921,0.220249597582342
920,0.223175168292932
919,0.227785998906164
918,0.231514277502351
917,0.235033816930917
916,0.237235831631152
915,0.24067723753107
914,0.245796690393142
913,0.249565802970665
912,0.253006307875755
911,0.257613598960334
910,0.261465114411145
909,0.265698500710866
908,0.269954473089429
907,0.273759998548598
906,0.279303902027193
905,0.282811121569949
904,0.286053546074716
903,0.290433846425405
902,0.29586259495919
901,0.300423393540813
900,0.305595289448721
899,0.310311943316221
898,0.314079912211677
897,0.319521756978756
896,0.32481803928471
895,0.328751206216459
894,0.333287986319406
893,0.338344810012858
892,0.344213018125514
891,0.349018057585046
890,0.354250324676601
889,0.3594121528683
888,0.364175543684069
887,0.36984763614002
886,0.374820658399277
885,0.380381480492044
884,0.387038485708698
883,0.392197124347122
882,0.396439044817027
881,0.401866969494837
880,0.406665707985022
879,0.412033467325604
878,0.418665580165247
877,0.423984504830496
876,0.429980233539387
875,0.435246677907235
874,0.440954341379586
873,0.445257429010222
872,0.45258225316303
871,0.458316158691645
870,0.464411354361119
869,0.469587098353446
868,0.476959394040101
867,0.480737133318619
866,0.488213997103664
865,0.492001260617715
864,0.498969766313667
863,0.505092535978005
862,0.511254680424675
861,0.516557524695484
860,0.522964116965651
859,0.528513176711701
858,0.533352182216012
857,0.539002962076992
856,0.546626778240731
855,0.551758696876284
854,0.558463975088489
853,0.562955420707728
852,0.569779388849175
851,0.573819581812954
850,0.581058462817127
849,0.586965767587079
848,0.59166537880462
847,0.599124216801487
846,0.602205184105939
845,0.60871585000464
844,0.614684693504276
843,0.619891973593972
842,0.625078917748274
841,0.628178959865718
840,0.637583713253018
839,0.641799165090093
838,0.647252712561236
837,0.653605656844988
836,0.657912409318077
835,0.661471149030181
834,0.667266743596963
833,0.670969907515511
832,0.676460109786416
831,0.681564922218342
830,0.68653718429071
829,0.690006890930826
828,0.693895915947625
827,0.698094091652294
826,0.702792232198002
825,0.70576652109008
824,0.710369446765429
823,0.713053368838916
822,0.716666141641313
821,0.71932871366724
820,0.725546058110712
819,0.732127531775336
818,0.731290217914373
817,0.732145308781648
816,0.736839504070502
815,0.738820317527562
814,0.744307644859046
813,0.745225564687342
812,0.748047064547468
811,0.749572755206584
810,0.752594692298189
809,0.754170310393641
808,0.7535259488183
807,0.754700652000429
806,0.757522085347626
805,0.760244805353295
804,0.7610848365483
803,0.759010108136347
802,0.760927246535003
801,0.762709791352555
800,0.762517187258828
799,0.763091580418593
798,0.763005851101315
797,0.764509164926054
796,0.764661849420939
795,0.760834182562472
794,0.762377274113335
793,0.760681830561773
792,0.759955461829337
791,0.758593134657787
790,0.757366485883371
789,0.755882451329169
788,0.753547375451412
787,0.753645276326609
786,0.750356171656258
785,0.74677123032467
784,0.747908620927141
783,0.745157397420822
782,0.742180769257032
781,0.73617735778482
780,0.734069065182813
779,0.730408281348094
778,0.726711523189622
777,0.724158268097619
776,0.718552756989952
775,0.716152102117129
774,0.713038762817711
773,0.706420524207038
772,0.702664712784623
771,0.698799539864461
770,0.691474379725884
769,0.688959539527484
768,0.683498249737458
767,0.679428184205322
766,0.672706565097938
765,0.666942937790942
764,0.662546925202296
763,0.658021051259885
762,0.651717647648252
761,0.644544239847932
760,0.638264418519564
759,0.632394271025554
758,0.625812790740815
757,0.618876007074114
756,0.611942447754841
755,0.605729539759301
754,0.598749760665858
753,0.592687640760774
752,0.585255968652127
751,0.579576912696999
750,0.571130288780781
749,0.563536162578608
748,0.557007937951306
747,0.550491605758524
746,0.542373519715011
745,0.537276999546928
744,0.528512521112331
743,0.521250106735476
742,0.514169637371115
741,0.506084451680911
740,0.498908358827628
739,0.491090277568122
738,0.484321082539079
737,0.477010476904791
736,0.469371045478966
735,0.462483615117866
734,0.454442858419663
733,0.44764119239026
732,0.440957020864796
731,0.433031386820815
730,0.425920414485998
729,0.419032175037338
728,0.411754093049069
727,0.404820708080244
726,0.397841193758996
725,0.390893940528222
724,0.384245184205479
723,0.376716117464792
722,0.370025288895191
721,0.363800922546083
720,0.356699050025366
719,0.350745960389359
718,0.344200666474606
717,0.338479695558917
716,0.331636006723245
715,0.325867076847179
714,0.319816016943168
713,0.313819636282772
712,0.307981959023987
711,0.302608539875991
710,0.296362302200975
709,0.291181184185819
708,0.285678530240283
707,0.280319253966988
706,0.275456975617079
705,0.269993851722275
704,0.264607690145618
703,0.260163669875968
702,0.255239869300713
701,0.250765037244521
700,0.245537411362968
699,0.241839539859882
698,0.237291575174589
697,0.232936596933963
696,0.2284114966461
695,0.224409790128234
694,0.22088653904542
693,0.217075200449237
692,0.212512264063065
691,0.209171456254135
690,0.205706061199435
689,0.202528616082582
688,0.19896808358195
687,0.195404108923317
686,0.192946696721319
685,0.189106792105383
684,0.186333473530297
683,0.183168130210569
682,0.180670129841592
681,0.177727548163404
680,0.175277028979396
679,0.173244725710286
678,0.170545340105543
677,0.168471172268708
676,0.166431090729054
675,0.164258791703513
674,0.162033355207455
673,0.160303241529769
672,0.158314798264401
671,0.156275056618722
670,0.154599502737149
669,0.153436375846069
668,0.152134349659233
667,0.150548796029072
666,0.14928075514446
665,0.148280264323012
664,0.146789480375535
663,0.145975081720202
662,0.145145791123591
661,0.144394706105495
660,0.143549763118812
659,0.14308160749872
658,0.142505872900986
657,0.142107524129502
656,0.141698168645445
655,0.141533616437292
654,0.141167399603183
653,0.140625326399709
652,0.140672921821536
651,0.140679721593336
650,0.140993235084342
649,0.14111308659473
648,0.141299412828398
647,0.141623488360128
646,0.141926306404614
645,0.142333290470521
644,0.143182274891766
643,0.143559850472615
642,0.144389688789975
641,0.14507608316226
640,0.146206384039512
639,0.147109652904692
638,0.147572028350078
637,0.149156694422762
636,0.150106795108922
635,0.151356749452948
634,0.152454627290628
633,0.154043771504316
632,0.155183994114443
631,0.156800371765117
630,0.158383234499279
629,0.160494129135534
628,0.162243170371481
627,0.164042033587602
626,0.165850464579079
625,0.167860038314197
624,0.169739799390914
623,0.172124748969577
622,0.173765225209045
621,0.176220293888906
620,0.178251734397295
619,0.180561211869473
618,0.183125981652295
617,0.185608301776311
616,0.188013209751665
615,0.190217053995307
614,0.192697914239572
613,0.195329745938803
612,0.197267986139924
611,0.199780754585864
610,0.201961495637677
609,0.204120935260604
608,0.206678535575848
607,0.208771014870109
606,0.211392743052748
605,0.213260175599861
604,0.215105426859307
603,0.217303255036452
602,0.219298957279134
601,0.221368468167318
600,0.223492838229543
599,0.225107111746826
598,0.226981980176291
597,0.228691908316368
596,0.230445514798203
595,0.231976134291265
594,0.233839443426603
593,0.235420683531725
592,0.237168653852623
591,0.238719517499832
590,0.240341033162767
589,0.241895244950374
588,0.243678959637312
587,0.245130324390275
586,0.246824938137912
585,0.248596111633618
584,0.249980569130747
583,0.251852697229282
582,0.253301347372014
581,0.254931963777063
580,0.256193099861996
579,0.257650000288813
578,0.259247586260726
577,0.260628923572251
576,0.261552608697852
575,0.26361003908557
574,0.264815211640903
573,0.266063860328789
572,0.266551501044364
571,0.267896962104259
570,0.269589583282589
569,0.270200298519334
568,0.271099886879663
567,0.27187792580981
566,0.272749613656739
565,0.273490429833963
564,0.275032670088027
563,0.274660761971869
562,0.276300523382456
561,0.276895044038573
560,0.277353872403626
559,0.277592248712976
558,0.277789433433345
557,0.278778030228201
556,0.279323945489713
555,0.279348471672841
554,0.280022646496527
553,0.279811182662377
552,0.280601641130974
551,0.280740902532374
550,0.281126314808808
549,0.281716093350344
548,0.281426596984364
547,0.282382499619677
546,0.282722960994284
545,0.282798561565938
544,0.283299654839527
543,0.283450125464328
542,0.283712666664855
541,0.283847604654152
540,0.284325747870445
539,0.284791401328108
538,0.285169045798936
537,0.285425736067195
536,0.285786087316991
535,0.286067551070914
534,0.286270724326003
533,0.28676401870491
532,0.287052884973398
531,0.28731189532709
530,0.287645250524024
529,0.287993129979521
528,0.288102317213479
527,0.288128751384398
526,0.288313081475825
525,0.288199870306477
524,0.288666025175067
523,0.288287440482101
522,0.288254662435944
521,0.288250339135999
520,0.288050006420152
519,0.287547922297492
518,0.287256168732297
517,0.286635734298568
516,0.286253460160026
515,0.285294900439203
514,0.284407109010967
513,0.283339019719728
512,0.282343171748537
511,0.280909123054594
510,0.279776277360129
509,0.278235354805729
508,0.276590585766542
507,0.274586126269485
506,0.272593930647501
505,0.270460497594765
504,0.268556461797124
503,0.266325463614441
502,0.263781065214352
501,0.261241519217744
500,0.259036550485102
499,0.256927510660988
498,0.253995895973484
497,0.252072989371805
496,0.249862471118964
495,0.247304886487707
494,0.244959296869995
493,0.242795377301408
492,0.241095999015675
491,0.23932068400608
490,0.237394095813624
489,0.235577174281479
488,0.234228753937761
487,0.233099367556663
486,0.231362551061638
485,0.230115024995656
484,0.229468014689573
483,0.228508700126461
482,0.227567105938917
481,0.226816074475384
480,0.226007618830757
479,0.225513990642234
478,0.225047086328883
477,0.224698442318043
476,0.224187777023018
475,0.22388923404756
474,0.223645435298917
473,0.223482964365029
472,0.223405886648029
471,0.223258827408038
470,0.223346875148335
469,0.223026499983628
468,0.223420911399231
467,0.223417144337857
466,0.223469020079106
465,0.223683473799174
464,0.223791585448732
463,0.224096132636898
462,0.224265340717694
461,0.224604128457792
460,0.224787824904702
459,0.224997281527021
458,0.225432549561302
457,0.225803377913401
456,0.226197487886766
455,0.226401870676781
454,0.226803942843609
453,0.22721442457148
452,0.227520158454256
451,0.22790808643213
450,0.228355129470379
449,0.228718337688773
448,0.229245376146731
447,0.229672229617952
446,0.230104911478405
445,0.230538024844022
444,0.230888571093938
443,0.231387996826075
442,0.232004751670853
441,0.23231149116216
440,0.232844459594398
439,0.233304101588621
438,0.23383895556538
437,0.234179394150819
436,0.23466195798418
435,0.235192392782382
434,0.235768512412678
433,0.236099678427254
432,0.236601119308376
431,0.237224075887219
430,0.237497490456433
429,0.238196452074897
428,0.238568616002718
427,0.239146451290447
426,0.239720381002737
425,0.240270357520696
424,0.240600065411375
423,0.241297770688441
422,0.241802768476038
421,0.242145848089244
420,0.242690170622336
419,0.243333307312836
418,0.243793164262184
417,0.244423758502238
416,0.24488199705747
415,0.245589218333196
414,0.246014068069453
413,0.24668795961115
412,0.247138396761933
411,0.247700051889879
410,0.248415962843076
409,0.248995255693186
408,0.249465012291457
407,0.250057354667242
406,0.25082641884364
405,0.251255640634855
404,0.251885197627905
403,0.252471639581045
402,0.25304269590825
401,0.253600115016503
400,0.254300395373259
