1100,0.0266456492751558
1099,0.0274648171669361
1098,0.0249714360413508
1097,0.0270458936229265
1096,0.0232922081921277
1095,0.0242032874863354
1094,0.0283192682337927
1093,0.0277678989887723
1092,0.0268267668134236
1091,0.0285094054744545
1090,0.0280519180472239
1089,0.0282835715108287
1088,0.0295926186747084
1087,0.0299769782894302
1086,0.0297156743167034
1085,0.0280669122596774
1084,0.0310047247386285
1083,0.0276375040206422
1082,0.0287419392688677
1081,0.0306666226215278
1080,0.0310189593697869
1079,0.0301190367803258
1078,0.0292030615975471
1077,0.0323297088303013
1076,0.0313545535973095
1075,0.0328370375137898
1074,0.0335574449895367
1073,0.0330813145894372
1072,0.0315731379921029
1071,0.0327328000954202
1070,0.0342901143270283
1069,0.0349659694284104
1068,0.0342124701425178
1067,0.0356985758407157
1066,0.033117519612951
1065,0.0369106625294468
1064,0.034613108458762
1063,0.0363992311761996
1062,0.0384438853443814
1061,0.0373767927367347
1060,0.0377949053512503
1059,0.0372147704991276
1058,0.038024469654731
1057,0.038345899679042
1056,0.0394801810497223
1055,0.0381027418995888
1054,0.0402147691504651
1053,0.0402006274557903
1052,0.0403748750259802
1051,0.0410986295304567
1050,0.0409470746375409
1049,0.0404459290222145
1048,0.0408244355470147
1047,0.0400006484537508
1046,0.041572982107107
1045,0.0422881516957583
1044,0.0436044470226986
1043,0.0432378085551565
1042,0.0436521018530068
1041,0.0458499535768184
1040,0.0446012495112743
1039,0.045048115901301
1038,0.0457668498771816
1037,0.0460686765790077
1036,0.0476914569023552
1035,0.0466132719217194
1034,0.0487128981829674
1033,0.0484912767834021
1032,0.0489425135629378
1031,0.0488826286444501
1030,0.0496219901793531
1029,0.0508559866893219
1028,0.0516142272330067
1027,0.0519826985934364
1026,0.0524661751128889
1025,0.0517136201277593
1024,0.0531095913740306
1023,0.0532120483128375
1022,0.0539985705279662
1021,0.0548135083207211
1020,0.0557180516678312
1019,0.0558423206751191
1018,0.0569988254970988
1017,0.057454177347066
1016,0.0578924970788812
1015,0.0585458455949492
1014,0.0581109795749359
1013,0.0604481656079715
1012,0.0606943716477089
1011,0.0613570502851496
1010,0.0618968416333065
1009,0.062820343167111
1008,0.0630709511334186
1007,0.0632892100623825
1006,0.0643914901594042
1005,0.0653376781532178
1004,0.0664128100802275
1003,0.0669744194663557
1002,0.067257385601876
1001,0.0690043962515855
1000,0.0705610542347144
999,0.070061004749751
998,0.0713924462678959
997,0.071757389426691
996,0.0725538746672584
995,0.0730780914880462
994,0.0746172619086817
993,0.0753354748320036
992,0.0763058362040604
991,0.0766281459903985
990,0.0785409267056209
989,0.0785587930935154
988,0.0799936962909341
987,0.0807458962559042
986,0.0829368627842267
985,0.0823865037327703
984,0.0847564450111962
983,0.0844125169018045
982,0.0855863270301969
981,0.087349799530037
980,0.08839655698401
979,0.089009365299035
978,0.089769909365431
977,0.0914394696881232
976,0.0918025371009233
975,0.0929728225728808
974,0.0946239607374993
973,0.0952747660628276
972,0.0959641609089421
971,0.0980100637640456
970,0.0991379896774955
969,0.0993746328712619
968,0.100006823071648
967,0.102680950855588
966,0.103438542493871
965,0.105195361802644
964,0.105205256123258
963,0.107130985280624
962,0.107919551191145
961,0.109841779352716
960,0.110754996475487
959,0.111254430167651
958,0.112955242369241
957,0.113454894838432
956,0.115291167659502
955,0.116299525823526
954,0.117190464146857
953,0.118844852731825
952,0.119959865781797
951,0.120542842235235
950,0.122363073357214
949,0.123073092368795
948,0.124292310328495
947,0.125112345349882
946,0.126812707191361
945,0.128746397010713
944,0.130092058237706
943,0.130857310539431
942,0.133590354084305
941,0.134808287781763
940,0.135359264872639
939,0.137145065503407
938,0.13828004853463
937,0.139392277570015
936,0.139759785559504
935,0.142248766990313
934,0.143786697670448
933,0.145623019785725
932,0.146712903426019
931,0.147795342615658
930,0.15004813454363
929,0.151047542926019
928,0.152321716302403
927,0.154632688885307
926,0.1549274103363
925,0.157783740445728
924,0.158434084088011
923,0.160011510795692
922,0.161998696579814
921,0.163099914026287
920,0.165374929702899
919,0.166571202368654
918,0.168516234014778
917,0.169793909782785
916,0.170800849761567
915,0.1722515841653
914,0.174272390378859
913,0.17581413465662
912,0.177949960469785
911,0.17872478970604
910,0.180496839125557
909,0.182180097121055
908,0.183666882897767
907,0.185657757377665
906,0.187981163506773
905,0.188962379135017
904,0.190405544172839
903,0.192165558868192
902,0.19348021313265
901,0.195455585957351
900,0.196651870463076
899,0.198571211497319
898,0.200802055513814
897,0.201712233308698
896,0.203257036156235
895,0.204616572952138
894,0.206621003788926
893,0.207304003162469
892,0.209617691465037
891,0.211639913660864
890,0.211875166011948
889,0.213600473130286
888,0.216025892640348
887,0.217204258746283
886,0.218776947893598
885,0.220578770262777
884,0.221910561078538
883,0.223258481139481
882,0.224556501662713
881,0.226283649069611
880,0.227010925232442
879,0.228596635670538
878,0.230076594882981
877,0.232412533329381
876,0.234072881352731
875,0.234671289459973
874,0.236075114182812
873,0.237951385310412
872,0.239387476777487
871,0.239948546166363
870,0.241120217491592
869,0.242430612906675
868,0.244463479437597
867,0.244881860577915
866,0.246765627254846
865,0.249652312165067
864,0.24938001133009
863,0.251484960367111
862,0.253131801518046
861,0.252226020372742
860,0.254723805305368
859,0.255448881306919
858,0.25731889336268
857,0.257507551221736
856,0.259536733986353
855,0.261022807850611
854,0.261607591165802
853,0.262436243604774
852,0.2639067173157
851,0.265195702983185
850,0.266114926290308
849,0.266906475659426
848,0.268495596876605
847,0.26915018587681
846,0.269934375457207
845,0.270966194512348
844,0.272190772289921
843,0.272526679270526
842,0.274373299839041
841,0.275912625055687
840,0.276116576787321
839,0.27681346216688
838,0.277228876445831
837,0.278661032241811
836,0.279312914083845
835,0.279630770224918
834,0.280304297851165
833,0.281403140785991
832,0.281866115295057
831,0.282713232657801
830,0.282476643087984
829,0.283370335240778
828,0.283567674964404
827,0.283856711493245
826,0.283573891454007
825,0.28473769262504
824,0.285174286934352
823,0.284741033641238
822,0.285071272783458
821,0.285614968134686
820,0.285889071188402
819,0.284578699945574
818,0.285047818518937
817,0.286174854330157
816,0.285402612247174
815,0.284795889821295
814,0.284429033786877
813,0.28400682767863
812,0.285194553253103
811,0.285168446816058
810,0.283237582877636
809,0.282700774749193
808,0.28371953196614
807,0.282621072444584
806,0.282511220391735
805,0.282205229995775
804,0.280520199588447
803,0.280334506773993
802,0.278541853588853
801,0.27815931645179
800,0.278196253317521
799,0.276998928853232
798,0.275781888277119
797,0.274253539520971
796,0.273238996189749
795,0.27255838842761
794,0.271826710193785
793,0.269894327553272
792,0.268284101162775
791,0.267478633432176
790,0.265522901349494
789,0.264407119973201
788,0.262972230812761
787,0.261365162771071
786,0.259940178373553
785,0.257704022298154
784,0.256455223527729
783,0.254446818838651
782,0.252790591782655
781,0.250985101190725
780,0.248735621159731
779,0.246740543656082
778,0.245335527952471
777,0.243611186110633
776,0.240976414722582
775,0.239205673590864
774,0.236053493447614
773,0.235290770046005
772,0.232971297329491
771,0.229434207719308
770,0.22785585274162
769,0.22520370880033
768,0.222736016787789
767,0.220378226885004
766,0.218228823641913
765,0.215950637713023
764,0.213672315831279
763,0.211237064506513
762,0.208465351530273
761,0.206387788599224
760,0.203772959439039
759,0.20194068396996
758,0.198689282008815
757,0.19558767600838
756,0.19340674453122
755,0.190830287858439
754,0.188203939805812
753,0.184880931298286
752,0.182430135367053
751,0.179828530737838
750,0.17738127179054
749,0.174253444122359
748,0.172005951536711
747,0.168856160125383
746,0.167125939579662
745,0.163949704371781
744,0.160773514807006
743,0.159266454906098
742,0.156685581146691
741,0.153816594824959
740,0.151247275509569
739,0.148385641315824
738,0.146122226905794
737,0.143311805562083
736,0.141194988627031
735,0.138642697806028
734,0.13531408635838
733,0.133387878619245
732,0.130662644784623
731,0.128670603618611
730,0.126446810839228
729,0.124100495562605
728,0.121874594602247
727,0.119270414448291
726,0.11650870924987
725,0.114787646022298
724,0.112644714910741
723,0.110579518854242
722,0.108269263481217
721,0.106426361167646
720,0.104260969289819
719,0.1023016671935
718,0.100180655074974
717,0.0985111541113094
716,0.0965387016675284
715,0.0951902518771981
714,0.0931903769510414
713,0.0917444988170479
712,0.0895136911655989
711,0.0881738107246261
710,0.0866321556603175
709,0.0847381959835382
708,0.0831894171104059
707,0.0821980652670042
706,0.0803970603469553
705,0.0789112461550983
704,0.0777597431691279
703,0.0764265084355043
702,0.075099015772364
701,0.0740597174489964
700,0.0731402435626228
699,0.0717748567583813
698,0.0709289260640394
697,0.0696912229642005
696,0.0685636650306525
695,0.0678201191859972
694,0.0670685095663387
693,0.0658233992690621
692,0.0653767650136328
691,0.0642133994739488
690,0.0637718347951155
689,0.0631092058816057
688,0.0622825705019847
687,0.0617908530874024
686,0.0613282508352557
685,0.0606944014163357
684,0.0601800957956809
683,0.0595521346907671
682,0.0591794421770186
681,0.0586649708642225
680,0.0584776913670638
679,0.0581892280656401
678,0.0577124980294713
677,0.0574252514509943
676,0.0571883030158599
675,0.0570999013777257
674,0.0572023591760901
673,0.0566089414623693
672,0.0565945506277126
671,0.0564602493343974
670,0.0564804434730235
669,0.0565251687256232
668,0.0565299451948807
667,0.0564374620399086
666,0.056453203717209
665,0.0565096013385894
664,0.0565885939053696
663,0.056811997422974
662,0.056847757373763
661,0.0570557958664044
660,0.0574103903761532
659,0.0575388387671734
658,0.0576452725728836
657,0.0581633015122708
656,0.0583014167219595
655,0.0584556272096451
654,0.0591825570096375
653,0.059450575590737
652,0.0597195913297596
651,0.0601719191888252
650,0.0605006508741588
649,0.061097357833144
648,0.0614126272930396
647,0.0619970934089982
646,0.0625160676355614
645,0.0631173182369976
644,0.0637929714343796
643,0.0642894535425088
642,0.0651939987319718
641,0.0657154243254177
640,0.0662226426645107
639,0.0670518950651497
638,0.0679181459113532
637,0.0685946459618007
636,0.069574777409332
635,0.0704814582327186
634,0.0712554123450238
633,0.0723420410627437
632,0.0733370814097598
631,0.0740688965449691
630,0.0753564120642977
629,0.0766031021519506
628,0.077790179541896
627,0.0788103032670572
626,0.0798005069445041
625,0.0812779163286664
624,0.0830831182835002
623,0.0841628953962382
622,0.0857284320276025
621,0.0869570058177499
620,0.0887699178665765
619,0.090091796378464
618,0.0920302243839887
617,0.0933127209771406
616,0.0952572301122376
615,0.0969276417102672
614,0.099235897604115
613,0.101075982301582
612,0.103424221199012
611,0.105544338765222
610,0.107646730164319
609,0.109830812131361
608,0.112167475364917
607,0.114838022505601
606,0.117475659090648
605,0.120017909819623
604,0.122442166341859
603,0.125569258561314
602,0.12835152519136
601,0.131674318501562
600,0.134699694055348
599,0.138500806595
598,0.14179360018618
597,0.144849139789481
596,0.148291664056997
595,0.152304255226078
594,0.155979975595206
593,0.16016888031153
592,0.16433538931969
591,0.168579999986446
590,0.172799371021973
589,0.17700565917205
588,0.181942717665463
587,0.186712071692126
586,0.191583473023199
585,0.196903173349945
584,0.201951687242303
583,0.207285228525638
582,0.212790874014092
581,0.218272680653214
580,0.224327340902583
579,0.230022429148696
578,0.235878471989999
577,0.242372984628773
576,0.248068675176709
575,0.254457050332106
574,0.260959920977044
573,0.267131139807125
572,0.273657614667653
571,0.279950289422482
570,0.286455318651269
569,0.293528582803618
568,0.300519875849855
567,0.306791588377071
566,0.313379895174577
565,0.320075449888214
564,0.326964074652545
563,0.333232616390623
562,0.339801961598417
561,0.346079059169412
560,0.352298696932413
559,0.358564312828198
558,0.364794455363234
557,0.370592407125225
556,0.376348721436872
555,0.381837218018104
554,0.387531975991163
553,0.392347072842655
552,0.396915802933226
551,0.402364828955385
550,0.407009290066106
549,0.411329645218132
548,0.415794377411436
547,0.419086866535006
546,0.422120299500423
545,0.425693496347591
544,0.429115065254415
543,0.431923100617399
542,0.434222422954179
541,0.436289152976987
540,0.438301454065992
539,0.440083705842278
538,0.441409805398488
537,0.442550989920837
536,0.44299596390607
535,0.443637085584842
534,0.44377273756407
533,0.443754542710004
532,0.443722577707648
531,0.442599795327668
530,0.44173537840778
529,0.440862998685437
528,0.439698697638738
527,0.437929410332433
526,0.436052231795958
525,0.434120773778795
524,0.431589868341895
523,0.42933007405248
522,0.426480367689655
521,0.423475113259295
520,0.420212900617076
519,0.417502722657121
518,0.414253385842388
517,0.410419515316923
516,0.407095038055436
515,0.402861656210468
514,0.398878573062697
513,0.395050472442405
512,0.391438753752221
511,0.386869760513724
510,0.382970705325742
509,0.378548057494942
508,0.374431749073121
507,0.369812362999063
506,0.364962164817767
505,0.360702868442161
504,0.356285309491507
503,0.351718999017572
502,0.347288997054358
501,0.343115265662104
500,0.338590434019524
499,0.334316595816641
498,0.330132871508638
497,0.32618072762761
496,0.322267677009311
495,0.318494546197668
494,0.314163761742529
493,0.310205435232799
492,0.307341726328198
491,0.304315674062238
490,0.300691332190053
489,0.297465000761675
488,0.29474517361447
487,0.292134680025592
486,0.289194341760764
485,0.286489763588257
484,0.284626855270675
483,0.282585196293283
482,0.280297930552229
481,0.278139375779557
480,0.276186244361682
479,0.274430757567303
478,0.272933304065515
477,0.271168319279647
476,0.269878955151035
475,0.268340902905668
474,0.267275871079055
473,0.265941068644901
472,0.264894284465163
471,0.263936614943215
470,0.262957765452548
469,0.262136733537159
468,0.261242794688003
467,0.260445223660466
466,0.260034761919805
465,0.259256708853587
464,0.258751962711649
463,0.258099623142589
462,0.257611959332664
461,0.257263140497181
460,0.257028644893207
459,0.256566015064761
458,0.256251470805514
457,0.255912421862476
456,0.255785609123817
455,0.255560209018465
454,0.255307105666855
453,0.255315866264822
452,0.255142970328805
451,0.25508409612835
450,0.254949423460962
449,0.254945093393902
448,0.254959387435157
447,0.254877307864763
446,0.25505866717766
445,0.254980666407119
444,0.254968932578098
443,0.255030864699238
442,0.255242711375755
441,0.255352960967681
440,0.255469298574277
439,0.255486546785505
438,0.255763357727049
437,0.255816725672194
436,0.256042305661754
435,0.256441487533449
434,0.256462979417084
433,0.256659305605808
432,0.256949120160389
431,0.257122268843194
430,0.257351945879578
429,0.257770516546304
428,0.258035751334587
427,0.258428885454415
426,0.258521544277088
425,0.258988753773293
424,0.259266395940318
423,0.259561861815486
422,0.259951623394447
421,0.260497142253767
420,0.260820063381614
419,0.261121027791228
418,0.261580737293756
417,0.261983057342779
416,0.262381487680424
415,0.262884212992654
414,0.263254235574566
413,0.26376771325122
412,0.2643702906209
411,0.264952979147252
410,0.265034555060073
409,0.265698691618372
408,0.266216885094941
407,0.266880344994059
406,0.267425538109894
405,0.26791499885239
404,0.268394158286149
403,0.269081445412804
402,0.269722467113328
401,0.270139492104658
400,0.270939335380456
