1100,0.00420357986944961
1099,-0.000647287861182319
1098,-7.3354638881482E-05
1097,0.0043787641776113
1096,-0.00559999526914098
1095,0.00210142516206481
1094,0.000877280806812823
1093,-0.000467507726759175
1092,0.000669227579179609
1091,-0.0023862277894064
1090,-0.00162012806649776
1089,0.00252025656484909
1088,0.00173408970886284
1087,-0.00114952280320735
1086,-0.000340732732220905
1085,-0.00164137816139848
1084,-0.000203209074455133
1083,-0.000415426355025302
1082,-0.00213659247945246
1081,0.00088008215345522
1080,-5.86536433047498E-05
1079,0.00149728566094965
1078,-0.000115487833995455
1077,0.000481564700342498
1076,-0.000976097568967546
1075,-0.00194098663736647
1074,-0.00102806010188754
1073,0.00123174275036523
1072,-0.00114947116812024
1071,-0.00103446459604557
1070,6.31922458608324E-05
1069,0.000939511273655413
1068,0.000938914607417309
1067,0.00141892504694525
1066,0.000592830706713753
1065,1.15970686464068E-05
1064,-0.00185248160376111
1063,-0.000109483844628842
1062,-0.000456336876254084
1061,0.00149936369532284
1060,0.000456220875238763
1059,0.00108641988172476
1058,-0.000463784141850138
1057,-0.000400530037515513
1056,-0.000847352464965754
1055,2.29096862143073E-05
1054,0.00048384519885061
1053,9.74198244604101E-05
1052,-0.000696912064081855
1051,0.000328746761744924
1050,-0.000200104200282383
1049,-0.00063968865448332
1048,-0.00010301393558665
1047,0.000852328868263846
1046,-0.00066522559722759
1045,-0.00134476279875467
1044,-0.00067876887247926
1043,-0.000288015303348186
1042,-0.000847765832951722
1041,-0.000316107919096101
1040,4.2194333335521E-06
1039,0.000438885306827306
1038,-0.00016475881800873
1037,0.00056437002124414
1036,-0.00141211107511467
1035,-0.000674995406932986
1034,-0.000434046033425915
1033,-0.000363390465489327
1032,-0.00139069493967785
1031,-0.000663157884454283
1030,-0.000826115155328547
1029,-0.000121284710487639
1028,-0.00147268979713692
1027,-0.00164617476228209
1026,-0.000489228002457903
1025,-0.00132969186936375
1024,-0.000274770272212917
1023,-0.000939265487782302
1022,-0.000307571681091625
1021,-0.000568756312469786
1020,-8.25683894671926E-05
1019,-0.000901758644007342
1018,-0.00102356656976845
1017,-0.000898555430084389
1016,-0.000430477323571583
1015,-0.000411133371483193
1014,0.000166323305148004
1013,5.03252381024406E-05
1012,-0.000148715308804408
1011,-0.000499415471815198
1010,0.000651261310323496
1009,0.000147108984374616
1008,-0.000380667486000282
1007,-0.000448268861077049
1006,-0.000485401175574889
1005,0.000102002692930095
1004,0.000274011740450474
1003,0.000555453760305709
1002,4.60276906587931E-05
1001,0.000459278640711399
1000,5.23445823099705E-05
999,0.000427613671701029
998,0.00104168299807126
997,0.000664923903071707
996,0.000962704066117687
995,0.000106223117402654
994,0.000461636762686154
993,0.000945737405046218
992,0.000608772615971694
991,0.000938577361645338
990,0.000932584807367882
989,0.00115960731842077
988,0.00195601906155965
987,0.00157649177884069
986,0.00180450106602308
985,0.00185428194778496
984,0.00173583101118195
983,0.00223298537647617
982,0.0022408953483516
981,0.00167135550319934
980,0.00206938014363094
979,0.00257061431517984
978,0.00217108961723866
977,0.0025692862954055
976,0.00193253915064966
975,0.00319408613216641
974,0.00327412398110905
973,0.00268720944768712
972,0.00331543961061272
971,0.00277819987505939
970,0.00348037612491347
969,0.0035907427236605
968,0.0036992054249472
967,0.00415888663776545
966,0.00355522087805876
965,0.00389659611156973
964,0.0035168574163062
963,0.00368777053435088
962,0.00466238260121171
961,0.00414098449886693
960,0.00369709073070738
959,0.00449179176424976
958,0.00365341545962399
957,0.00366043766653527
956,0.00321724317216221
955,0.00420794489358011
954,0.00308361171293975
953,0.00286058440582478
952,0.00304291769399117
951,0.00347330464118141
950,0.00330477124652482
949,0.0032781927701407
948,0.00338957763298236
947,0.00300890031598915
946,0.00344277594075046
945,0.00330174554793403
944,0.00326103108535505
943,0.0030456809083686
942,0.00365806211171191
941,0.00314219589776343
940,0.00341584984254186
939,0.00302923222157306
938,0.00293904922660166
937,0.00349128365769825
936,0.00264946951335261
935,0.00356448603162273
934,0.0035669915718923
933,0.00245233232474843
932,0.00322459735535491
931,0.00312874195468551
930,0.00322796154449943
929,0.00341081443000892
928,0.00373142315136063
927,0.00300501650897097
926,0.00249198171159139
925,0.00315909213758681
924,0.00311789566836435
923,0.00364401788825089
922,0.00308919081864593
921,0.00318704538506134
920,0.00308382027634948
919,0.00383929421671093
918,0.00368878869733039
917,0.00365670465764691
916,0.00348021955945158
915,0.0030119500411465
914,0.00360418488513864
913,0.00385773237884931
912,0.00426824944714263
911,0.00433141221831314
910,0.00366004609066997
909,0.00389646551524638
908,0.00413424198676594
907,0.00334246382779127
906,0.00399776782223431
905,0.00387940997288686
904,0.00371776818294684
903,0.00419377832842101
902,0.00327094200599289
901,0.00392410057233173
900,0.00349316249483107
899,0.00429692776219396
898,0.00399687956110809
897,0.00483741182792934
896,0.00452725951358037
895,0.00425316598852157
894,0.00399941372265254
893,0.00452995371615416
892,0.00410549601667037
891,0.00548470075364643
890,0.00455658275318061
889,0.00491262173595804
888,0.00496773507120466
887,0.00449869676271673
886,0.00455692282020433
885,0.00496506433504274
884,0.00494110699511646
883,0.00535865132920915
882,0.00522221110560641
881,0.00516536274620248
880,0.00465827465832981
879,0.0052744552838245
878,0.0052416250839756
877,0.00536732604785408
876,0.00554998089751568
875,0.00502751672875127
874,0.00594184171414243
873,0.00692560788047716
872,0.00627149466480051
871,0.00615577128807427
870,0.00683150924856727
869,0.00738239945316279
868,0.0060041985215041
867,0.00678367877198269
866,0.00744122410908744
865,0.00650897249599721
864,0.00722750280208824
863,0.00759132364312944
862,0.0067045688918744
861,0.00713604916130817
860,0.00745668204383442
859,0.00731421074165606
858,0.00780482877883286
857,0.0067442666316249
856,0.00814397038570654
855,0.00835378912506238
854,0.00789594887783629
853,0.00827848226858415
852,0.0086921450266061
851,0.00852722398192228
850,0.00878360999394288
849,0.00855732017322069
848,0.00886061608649117
847,0.00882312839623153
846,0.00897774964254348
845,0.00942966904684312
844,0.010419759341861
843,0.010258607327079
842,0.010627577028809
841,0.0102173944617962
840,0.0112243721983295
839,0.0109741078841707
838,0.0104009079096943
837,0.0100431245089054
836,0.011262333403947
835,0.0110314031331357
834,0.0116857898590118
833,0.0118176261695195
832,0.0118032623936626
831,0.0119662393324513
830,0.0125969342816951
829,0.0128798128351843
828,0.0121480709595669
827,0.0132411160387803
826,0.0130298836278933
825,0.0139069419319209
824,0.0136327961059093
823,0.0141993945371026
822,0.0147617786351956
821,0.0149397210232212
820,0.0149160911763899
819,0.0140014634903691
818,0.0150496890598823
817,0.0157632012974141
816,0.0162132927275218
815,0.0161286585176466
814,0.0171614626761104
813,0.0167129167632194
812,0.0169028563462852
811,0.0184871693050195
810,0.0178621907912953
809,0.0192071949139819
808,0.018211872507649
807,0.0193911098221706
806,0.0199006381333414
805,0.020272605752885
804,0.0201818618226906
803,0.0214176720504768
802,0.0222865911775288
801,0.02122637324187
800,0.0218149214944126
799,0.0234784900031963
798,0.0230673231789161
797,0.0238872841442209
796,0.024351464151418
795,0.024716605626681
794,0.0251949228571607
793,0.0261215251661668
792,0.026694947388536
791,0.0278341599305762
790,0.0278785971289001
789,0.0291624197716123
788,0.0288763734912103
787,0.030385164325381
786,0.0302092171274184
785,0.0300569480913559
784,0.0316132821993167
783,0.0326353967351091
782,0.0335662821626294
781,0.0344377942250424
780,0.0352680163314786
779,0.0362582554993194
778,0.0369849853817964
777,0.037325759365558
776,0.0383120269493342
775,0.0393099192990085
774,0.0404885499514128
773,0.0413700355265735
772,0.0424277592173653
771,0.0435203411357973
770,0.0445733105244938
769,0.0447961552958741
768,0.046131715493458
767,0.0475493675128813
766,0.0477089649310778
765,0.0492563273089669
764,0.0506058702343568
763,0.0511581106167447
762,0.0527150566389349
761,0.0536367328022079
760,0.0545674721730347
759,0.0558166221540678
758,0.0571389624077517
757,0.0576458342200469
756,0.0590693990952242
755,0.0613347797356873
754,0.0618684242558014
753,0.0633150251616112
752,0.0647651685823624
751,0.0659823836274614
750,0.0672566904986735
749,0.068422490297563
748,0.0705686065641636
747,0.0713127587701411
746,0.072740254997266
745,0.0740354352242111
744,0.0756866456420927
743,0.0769250146659414
742,0.0786737014569673
741,0.0799263860762773
740,0.0813667277882108
739,0.0832995050401645
738,0.0848923929349841
737,0.0857922635600462
736,0.0870678632643098
735,0.0886576727054831
734,0.0901706726347819
733,0.0918236758352858
732,0.0935637094855849
731,0.0950475305141016
730,0.0967005101630163
729,0.0985125831005554
728,0.0998619890517701
727,0.101544157557102
726,0.103096832527072
725,0.104659393612052
724,0.106009395139668
723,0.107363871393086
722,0.109397711713199
721,0.111219816956747
720,0.112705379866964
719,0.114006378858424
718,0.115740291857183
717,0.11756418255763
716,0.118886920432249
715,0.12117292915869
714,0.122533698849987
713,0.124128020443768
712,0.125815567817952
711,0.127185920140151
710,0.129087543946185
709,0.130737492449702
708,0.132394751518093
707,0.133922079928455
706,0.135636943723372
705,0.137085787125311
704,0.139526429242906
703,0.140970278662232
702,0.142175356627897
701,0.144212026561303
700,0.14580824946831
699,0.146816085860096
698,0.148643855625014
697,0.150334563894507
696,0.152604793944551
695,0.153800733424318
694,0.155180108714174
693,0.157062004220804
692,0.15884631967202
691,0.16016566124363
690,0.162025611282798
689,0.163478734420963
688,0.16502174269758
687,0.166344099173108
686,0.168101621103468
685,0.169426443783157
684,0.171199696091648
683,0.172907477247381
682,0.17423368676383
681,0.175511606223979
680,0.176838413882661
679,0.178207250916901
678,0.179056305649432
677,0.180899708202401
676,0.182051510318314
675,0.182966895867355
674,0.184108498225914
673,0.1855702414687
672,0.186434066749261
671,0.187093827768392
670,0.188455833402097
669,0.18909450913396
668,0.19010764044073
667,0.190729996595803
666,0.191659008317928
665,0.192322286755364
664,0.192977658218737
663,0.193591773385391
662,0.194201252539026
661,0.194814669220252
660,0.195196760494602
659,0.195542193189563
658,0.196006910702044
657,0.196140795108398
656,0.196283669632088
655,0.196630090397762
654,0.197006571056129
653,0.196902317916048
652,0.196994633026904
651,0.196953321014858
650,0.197157352569888
649,0.197173534129052
648,0.196957557963445
647,0.197100864497651
646,0.196709765965834
645,0.196532643071564
644,0.196613318456383
643,0.196754149601143
642,0.196460894460883
641,0.196224610756861
640,0.19618959410091
639,0.196187601368
638,0.196359253930505
637,0.196283954370637
636,0.195985935288115
635,0.19624429615625
634,0.19648547404544
633,0.196246980598029
632,0.19681543904905
631,0.197032363208895
630,0.19746955516375
629,0.197607685792221
628,0.197752023341717
627,0.198047009593038
626,0.198736650106162
625,0.19953405183272
624,0.200192442743555
623,0.20050502834643
622,0.201680230973762
621,0.202608390707731
620,0.203352944720519
619,0.204190771016508
618,0.205473336683249
617,0.205976635511814
616,0.20745326953878
615,0.208481206919381
614,0.209837246102247
613,0.210823820722766
612,0.212305069844819
611,0.213499354663021
610,0.2148422244828
609,0.216071486102883
608,0.217258855461786
607,0.218607252136489
606,0.219899971757235
605,0.22098861737311
604,0.222008866585685
603,0.223185208266941
602,0.224290851268598
601,0.225423501494969
600,0.226362154740533
599,0.227117597651204
598,0.228003076854686
597,0.228759365572454
596,0.229240241706696
595,0.229848766252369
594,0.23028232794512
593,0.230561001373539
592,0.231075342240666
591,0.231398537189451
590,0.231350379957931
589,0.231701626922828
588,0.231661908802013
587,0.231488912561435
586,0.231392627498144
585,0.231573571073513
584,0.231252758879643
583,0.230812370038177
582,0.230821971515925
581,0.230512408767216
580,0.229902031313981
579,0.229266441151478
578,0.228794610567354
577,0.228940311461043
576,0.22816729170424
575,0.22768309759945
574,0.227270075971372
573,0.227057337395674
572,0.226650755603496
571,0.226017419583949
570,0.226031576617927
569,0.22559858024017
568,0.225128715973133
567,0.22478808552223
566,0.224589106133555
565,0.224238747129843
564,0.224066470542097
563,0.22395534243244
562,0.223413810299301
561,0.223825042682412
560,0.223442864924206
559,0.223622215255349
558,0.223026499983628
557,0.223087804351326
556,0.223136352128541
555,0.223196590069904
554,0.223398872388846
553,0.222878920445784
552,0.223195811077682
551,0.223378826087454
550,0.222823439704957
549,0.222700525166125
548,0.223078675206215
547,0.222404816795727
546,0.222678479455946
545,0.222672644014097
544,0.22213305332828
543,0.222103784015354
542,0.221839758649761
541,0.221470487422867
540,0.221353083312327
539,0.220634007993418
538,0.220397705164055
537,0.219481967660377
536,0.219015499230487
535,0.218158832747657
534,0.21764994123104
533,0.216955224293363
532,0.215785829009458
531,0.214749729618016
530,0.213786856910274
529,0.212742835260085
528,0.211679907264497
527,0.210659768485411
526,0.208882469780654
525,0.207603505758591
524,0.206070442350346
523,0.204732690291743
522,0.203208097878138
521,0.201360131482098
520,0.199871017706318
519,0.198003841304788
518,0.19644726234401
517,0.194435344056967
516,0.192526129700249
515,0.190633301923413
514,0.188705634672272
513,0.186725520999277
512,0.184942430264115
511,0.182824470422377
510,0.180618845534702
509,0.178592183857451
508,0.176585975659189
507,0.174439771990806
506,0.172149720568264
505,0.170313046161745
504,0.168013341484303
503,0.166111346713384
502,0.163979345763935
501,0.161997493726999
500,0.159951758999367
499,0.158120507082013
498,0.156037885703254
497,0.154201060508619
496,0.152590815919422
495,0.150543963385934
494,0.148913639621163
493,0.147084155355897
492,0.145668849173467
491,0.144371136054743
490,0.142913796409474
489,0.141453443140271
488,0.14037147683816
487,0.139221534135632
486,0.137948428201561
485,0.136873338839045
484,0.136084142065996
483,0.135112219156614
482,0.134445085416986
481,0.133550710461256
480,0.132575406711604
479,0.132092329339736
478,0.131453183483633
477,0.13093856076321
476,0.130548369590119
475,0.129983240545143
474,0.129543498176591
473,0.129143893457453
472,0.128729788874911
471,0.128459030069518
470,0.128215042777077
469,0.127779900271451
468,0.127652314733344
467,0.127495255025368
466,0.127388682622321
465,0.127096384988878
464,0.127008186110889
463,0.126885750120219
462,0.126820645291513
461,0.126688420317972
460,0.126620677115209
459,0.12654961874813
458,0.126600962536468
457,0.126654599372614
456,0.126500948224033
455,0.126553498768421
454,0.126417718679316
453,0.126557829189144
452,0.12657078606582
451,0.12665245099989
450,0.126714065003492
449,0.126797351365769
448,0.126859505945352
447,0.126952841184299
446,0.127090973924597
445,0.127272142486897
444,0.127186614014253
443,0.127378373910647
442,0.127494664813013
441,0.127588657557663
440,0.127828679599432
439,0.127835454939434
438,0.12793668068095
437,0.128194282009384
436,0.128364083449953
435,0.128418147247098
434,0.128692640480376
433,0.128811094714986
432,0.12885692518534
431,0.129203979778389
430,0.129236884395505
429,0.129371003468769
428,0.129655276169916
427,0.129830885718205
426,0.12990307653081
425,0.130253484113972
424,0.130445205058404
423,0.130530538658047
422,0.130894749537947
421,0.131048773234796
420,0.131336913739943
419,0.131355478377766
418,0.131649465860777
417,0.131961716920669
416,0.132184409616237
415,0.132532378390946
414,0.132732382065861
413,0.132811488506681
412,0.13314620737996
411,0.1333785878521
410,0.133549231817081
409,0.133883709628897
408,0.134017861914474
407,0.134306533766953
406,0.134703753475277
405,0.134905889967165
404,0.135231730737766
403,0.135353608463248
402,0.135717111778548
401,0.13600514542433
400,0.136220959572935
