1100,0.0102448781053877
1099,0.0140537318384354
1098,0.00741152113833803
1097,0.0113781501942452
1096,0.0112869608171186
1095,0.0123178882500063
1094,0.0095479088117659
1093,0.0108231002334991
1092,0.0115056135858258
1091,0.0112737303827209
1090,0.0115277826399694
1089,0.00772611239985383
1088,0.0120292543207373
1087,0.00869623848429054
1086,0.00668133030956897
1085,0.0109458082006992
1084,0.0117696689727522
1083,0.0109867451113995
1082,0.010119797852544
1081,0.00930532581172487
1080,0.0112544433630729
1079,0.0114208818750477
1078,0.0129866732854437
1077,0.0133447820968393
1076,0.0119717474570296
1075,0.014832218280728
1074,0.0101557282373
1073,0.0124167792338012
1072,0.0125492373401364
1071,0.0118058691177005
1070,0.0110598411631513
1069,0.0136480486028285
1068,0.0132141359610292
1067,0.0113251400531418
1066,0.0142026308521937
1065,0.0128037971110331
1064,0.014513509738968
1063,0.0135958023447894
1062,0.014116087784236
1061,0.0135100209975172
1060,0.0147980415733832
1059,0.014299785025852
1058,0.0143266186016646
1057,0.0145954203765163
1056,0.0153395871877036
1055,0.0147873552082427
1054,0.0154505417078481
1053,0.0144157725544141
1052,0.0145204153336443
1051,0.0155883289043785
1050,0.0150275002838374
1049,0.0150771586199747
1048,0.0137886051377464
1047,0.0140686782669138
1046,0.0141870379194925
1045,0.0161100680689025
1044,0.0153769711618927
1043,0.0159437565719144
1042,0.0165731587900581
1041,0.016856271888262
1040,0.0174288187559435
1039,0.0170710702542901
1038,0.0176231154469547
1037,0.0176234659009846
1036,0.0180360115515026
1035,0.0183931788325883
1034,0.017338128213465
1033,0.0179037309447846
1032,0.0185658614556829
1031,0.0183728439156448
1030,0.0185927707971579
1029,0.0190161368889994
1028,0.0183645535919171
1027,0.0187671815873429
1026,0.019390568463309
1025,0.0198244132667963
1024,0.0198284233422931
1023,0.0204972690522508
1022,0.0210268716992837
1021,0.0207545767951599
1020,0.0214497900172082
1019,0.0211500784217767
1018,0.0213064061522323
1017,0.0215087561934294
1016,0.0222542750333258
1015,0.0218558886980107
1014,0.0226964736658881
1013,0.022570509832782
1012,0.0230674869672899
1011,0.0234639539243632
1010,0.023750475418981
1009,0.0237710090188369
1008,0.024148196070758
1007,0.0249468153707551
1006,0.0247756881885547
1005,0.0248630387783268
1004,0.0250751433176832
1003,0.0261608936457501
1002,0.0270204663785884
1001,0.0262388713641608
1000,0.0277065041826988
999,0.027280787227011
998,0.0272853629063155
997,0.0281510882777355
996,0.0283914718908268
995,0.0295199102877247
994,0.0294444161751039
993,0.0299050374676439
992,0.0301797469049686
991,0.0304351109007828
990,0.0310423974841152
989,0.0317170006051115
988,0.0317860949855596
987,0.0328174387460786
986,0.0327819566176518
985,0.0334940239728695
984,0.0334772754354676
983,0.0349268607082297
982,0.034836004042503
981,0.0355784492793296
980,0.0360188508815078
979,0.0359599623805808
978,0.0369250638785644
977,0.037503739219599
976,0.0374109876042353
975,0.0383780501141518
974,0.0390406752374315
973,0.0397016750549759
972,0.0399875355014064
971,0.0406401722925245
970,0.0404247337707157
969,0.0416612988916839
968,0.0423817796664662
967,0.0427295012707836
966,0.0432667198694609
965,0.0439350760212034
964,0.0442825821121519
963,0.0449395858358446
962,0.046348333970129
961,0.0471789232284071
960,0.0476490476395692
959,0.047579607080998
958,0.0489913373255987
957,0.049207415765331
956,0.050322179770348
955,0.0505055673718036
954,0.0504239520707238
953,0.0523486794396995
952,0.0529622385405536
951,0.0529115043465024
950,0.0537573607121273
949,0.0544846498352163
948,0.0557719992401028
947,0.0561476400575856
946,0.056711047511587
945,0.0574988552440724
944,0.0582995220027478
943,0.0590518125831505
942,0.0593319468764446
941,0.060681869004837
940,0.0622529029712801
939,0.0630277614418556
938,0.064125296653062
937,0.0645361356412576
936,0.0655611134440883
935,0.0666486295619553
934,0.0678261714457138
933,0.0683038699040294
932,0.0697307644246215
931,0.0704620029742864
930,0.072343661689991
929,0.0728482765307735
928,0.0735436977655566
927,0.0742474516639574
926,0.075494315112648
925,0.0768088379260518
924,0.0787124247304739
923,0.0792782464255223
922,0.0800708840416853
921,0.0809960875499918
920,0.0824323820867981
919,0.084492097805632
918,0.0855033304682417
917,0.0864106912970413
916,0.0873171032617586
915,0.0887599464009714
914,0.0893041704674862
913,0.0916943651000151
912,0.0933225407959106
911,0.0939485469525575
910,0.0956415715258076
909,0.0967055231794717
908,0.0981751474362548
907,0.0996136191220222
906,0.101142796246785
905,0.102491759259407
904,0.103654305930778
903,0.105408799325677
902,0.106882066475994
901,0.108536094745248
900,0.110119685809188
899,0.112254889805837
898,0.113413484449195
897,0.115070389692877
896,0.116341618386243
895,0.117774723055256
894,0.119508404087105
893,0.121332544889868
892,0.122397350934256
891,0.124286210369129
890,0.126036133819295
889,0.127704657437243
888,0.129548835235702
887,0.131780650581509
886,0.133393016780369
885,0.135338866792471
884,0.137372918865845
883,0.139040945943921
882,0.140315654132343
881,0.142227037092099
880,0.144181827961936
879,0.145344491279494
878,0.148089718190722
877,0.150274409035297
876,0.152997981412893
875,0.154551427971367
874,0.156231321389276
873,0.15834264111755
872,0.160222260427255
871,0.161447612766718
870,0.164243299994962
869,0.165775571009129
868,0.167755237985964
867,0.170251821890556
866,0.171672738154935
865,0.173344299934566
864,0.174731567778268
863,0.177476890965547
862,0.180465460381848
861,0.183174089746913
860,0.183906234773457
859,0.187342288758626
858,0.188846283529441
857,0.189138961533531
856,0.19148192149525
855,0.193646027893649
854,0.19668395224956
853,0.197725331358631
852,0.20084184439454
851,0.201804752677128
850,0.203787195929307
849,0.20529526199399
848,0.207160335268531
847,0.209988981122996
846,0.212430058439597
845,0.214469818166836
844,0.216969984863024
843,0.218051515321162
842,0.22079236067272
841,0.221773410726283
840,0.223114154476786
839,0.225622602512408
838,0.228054715556852
837,0.228349567604847
836,0.230416999975308
835,0.232859991464771
834,0.233379899357944
833,0.235964659126122
832,0.237216253800455
831,0.239882251697209
830,0.240380292373375
829,0.241925201250068
828,0.242849891990134
827,0.244460707034702
826,0.246280660404802
825,0.247140500354829
824,0.249461610094543
823,0.249945955630562
822,0.251568618786434
821,0.252175266207887
820,0.253600300679183
819,0.254700863707176
818,0.255562260550612
817,0.256509284023955
816,0.257971326296124
815,0.258763752228141
814,0.259262492864819
813,0.260927395228865
812,0.259904856136901
811,0.259320572369679
810,0.261163155841633
809,0.261551663230478
808,0.260995093068602
807,0.262382292864593
806,0.261704855793692
805,0.261871017330036
804,0.261306336744304
803,0.262875867401148
802,0.262816030413919
801,0.262235821276489
800,0.262009936103908
799,0.261874376217557
798,0.260536898833088
797,0.261659932621619
796,0.260125973532666
795,0.258704854810297
794,0.258393451262319
793,0.257846488961392
792,0.257438708999689
791,0.255525520942167
790,0.255446084495728
789,0.254610505142305
788,0.252197288252863
787,0.251449210662192
786,0.25077315332189
785,0.249495955116604
784,0.248698307149611
783,0.245628681438568
782,0.244353687631924
781,0.242944901547573
780,0.241262849767687
779,0.239503883351368
778,0.237297297450855
777,0.235258464606541
776,0.233633038367687
775,0.231636446984197
774,0.228593086357575
773,0.22650930936763
772,0.224978769156254
771,0.223250690169946
770,0.22029593757318
769,0.218046041089613
768,0.215283873490232
767,0.212569483632316
766,0.210670868758434
765,0.207758889394899
764,0.205052878762777
763,0.20307970244781
762,0.200307013552298
761,0.197729004469969
760,0.194841223447136
759,0.19246911177041
758,0.189320939713432
757,0.186584244485813
756,0.184262780012452
755,0.181334940867018
754,0.177864490767716
753,0.17619159171467
752,0.171899569242872
751,0.170324234508226
750,0.167058279505021
749,0.163628536532757
748,0.160894715257367
747,0.158322252668579
746,0.156267377595553
745,0.152879148565082
744,0.149820588988648
743,0.146969761703521
742,0.144377127707489
741,0.141608747515958
740,0.13936020008241
739,0.136480510612707
738,0.133734066145487
737,0.130986681219226
736,0.12845374118129
735,0.125538462442974
734,0.123548299700789
733,0.120905745197982
732,0.118110448040762
731,0.116120847036487
730,0.11277387300217
729,0.111279580820421
728,0.108801094707751
727,0.106955011798905
726,0.10429743489099
725,0.102858185786794
724,0.10040951663822
723,0.0979562823626737
722,0.0956201493610504
721,0.0941425404754811
720,0.0916406887917778
719,0.0902270352455612
718,0.0881835467448997
717,0.0868980936749306
716,0.0851484178227452
715,0.083112989669227
714,0.0817070953153263
713,0.0801623132501058
712,0.0781703959092122
711,0.0768634309434827
710,0.0756244053947375
709,0.0741356733999746
708,0.0724175136690051
707,0.0714667164639078
706,0.0701358689975583
705,0.0690900043205879
704,0.0677072297410674
703,0.0662427230167789
702,0.0654625337326973
701,0.0643084241147938
700,0.0636067345838389
699,0.0626245357259395
698,0.0617155336688394
697,0.06093800686985
696,0.0598207974420619
695,0.0591191671486722
694,0.0586622745566564
693,0.0581131989861089
692,0.0574425358456914
691,0.0566495214659081
690,0.0560711133659988
689,0.0554884447761903
688,0.0552696309535884
687,0.0545753091228797
686,0.0541902917463848
685,0.0538412751609364
684,0.0533074761268638
683,0.0529576181208135
682,0.0527658555781394
681,0.0525041496885766
680,0.0525162438275073
679,0.0524920850981083
678,0.0519949241108806
677,0.0519696856522728
676,0.051757769647658
675,0.0518634667840997
674,0.0516272003740618
673,0.0515997094357728
672,0.0517904618473931
671,0.0519160332708009
670,0.0519892927438642
669,0.0521232398593036
668,0.052237842665134
667,0.0524359146744904
666,0.0524234138732909
665,0.0531246863093279
664,0.0531139793825268
663,0.0535463570591068
662,0.0536338918007151
661,0.0541017651930005
660,0.0545936839492962
659,0.0549599043013992
658,0.0554380322487718
657,0.0559674497486818
656,0.0561981939518356
655,0.0567733493019682
654,0.0575849440727661
653,0.0580654101727855
652,0.0584712348935749
651,0.0593157740927481
650,0.0597991996763991
649,0.0605476073552089
648,0.0614309955073938
647,0.0620087083475774
646,0.0628771549120831
645,0.0640643313225474
644,0.0645760214652798
643,0.0654320462792175
642,0.066318138156003
641,0.067329440594662
640,0.0682479189875168
639,0.0693953993163536
638,0.0705046899881661
637,0.0714429449575156
636,0.0726493650871507
635,0.073934974657291
634,0.075095261537965
633,0.0764030503380071
632,0.0775415492878933
631,0.0788953209489092
630,0.0802669341172636
629,0.0817659324139865
628,0.0832119905435799
627,0.0848513523181789
626,0.0860940765676937
625,0.0877858161684642
624,0.0897458785083327
623,0.0911398273403439
622,0.0933509104085469
621,0.0950240757214632
620,0.0969307158046645
619,0.0991410144092519
618,0.100904110233571
617,0.10300481019287
616,0.104957833857363
615,0.107386875175922
614,0.110000985257471
613,0.112210342441672
612,0.11448005141342
611,0.117006978895677
610,0.11960985511949
609,0.122017840766721
608,0.124931385055519
607,0.12788754172376
606,0.130960293050742
605,0.133674406309204
604,0.136348607409746
603,0.139558947366737
602,0.142789778770624
601,0.146321918257396
600,0.14963926673844
599,0.153340120283824
598,0.156694530084986
597,0.160060829992561
596,0.163707551458465
595,0.167495155977961
594,0.171457089384123
593,0.175190068722098
592,0.179463827128491
591,0.183723309996224
590,0.187617048029366
589,0.191974329941281
588,0.196015975971586
587,0.200930231500166
586,0.205120498298999
585,0.20936948885759
584,0.214031792459333
583,0.218684981866848
582,0.22319680645688
581,0.227866395216671
580,0.232925842144612
579,0.2377198812782
578,0.241950189005219
577,0.246953640451372
576,0.251642266314476
575,0.255925534489655
574,0.26101251493125
573,0.2652997826499
572,0.270039259669985
571,0.274393019643232
570,0.278824316820892
569,0.283286931600861
568,0.287599921668754
567,0.291624155742411
566,0.295975365323765
565,0.299605396631082
564,0.30332392276811
563,0.307294714659062
562,0.311309515709109
561,0.314117126279639
560,0.318141507267728
559,0.321598315169256
558,0.325120425779227
557,0.327562013598491
556,0.330162019607668
555,0.333087310872883
554,0.335884147079816
553,0.338375586522743
552,0.340359043760585
551,0.342530286590656
550,0.344239981398714
549,0.346012530896671
548,0.34790118702617
547,0.348963854170305
546,0.350249269145953
545,0.351286956028547
544,0.351775351261638
543,0.352237383650981
542,0.352476335854041
541,0.352610261340426
540,0.35274641509963
539,0.352234937124808
538,0.352131787812237
537,0.35147226404849
536,0.351060595137555
535,0.349970452085023
534,0.348631670005113
533,0.347696412924059
532,0.346169177155204
531,0.344497861147002
530,0.342751274741112
529,0.341302330239478
528,0.339489210058749
527,0.337154775953581
526,0.335007405092862
525,0.332957850693533
524,0.330164234168088
523,0.327892642568568
522,0.325106115458112
521,0.322171513159284
520,0.319414046620593
519,0.316827503399041
518,0.31408684792522
517,0.311279538475549
516,0.3077629572717
515,0.304892167943858
514,0.30142957403153
513,0.298313596249208
512,0.295113191232719
511,0.292055813981881
510,0.2884268250754
509,0.285228798492521
508,0.281956975830433
507,0.27836196757086
506,0.275141914624153
505,0.271911475796382
504,0.268539263109664
503,0.265210481443898
502,0.261895902099353
501,0.258668224081669
500,0.255507152303388
499,0.252215054750039
498,0.249027405160813
497,0.24635296008934
496,0.243532992050246
495,0.24043842233211
494,0.237683546529707
493,0.234856227344832
492,0.232570950759272
491,0.230264336706832
490,0.227745237801441
489,0.225479010871011
488,0.223630532740191
487,0.221841009780797
486,0.219605390909456
485,0.217815373505769
484,0.216352176497279
483,0.214954356879823
482,0.213642637470502
481,0.212084264382649
480,0.210632943996859
479,0.209509696044146
478,0.208320086220174
477,0.207308842978209
476,0.206315475684764
475,0.205505245810545
474,0.204502849526578
473,0.20379625951944
472,0.203065489130435
471,0.202200963377856
470,0.201819748767525
469,0.201320994665668
468,0.200914978301392
467,0.20007256778329
466,0.199827667741912
465,0.199493235178986
464,0.199100796092236
463,0.198883573154366
462,0.198607197722401
461,0.19826581668401
460,0.198125801760612
459,0.197877750765693
458,0.197709496523175
457,0.197497047244638
456,0.197540124390343
455,0.197347371066033
454,0.197363437372295
453,0.197351897300301
452,0.197239530156705
451,0.197205654475955
450,0.197295873181661
449,0.197291796017013
448,0.197281562502352
447,0.197343823509988
446,0.19734243711665
445,0.197639430224921
444,0.197564275568523
443,0.197685704544024
442,0.197865788765489
441,0.197878853082632
440,0.198173026727651
439,0.198219317081109
438,0.198441031698992
437,0.198506321148602
436,0.198661673454508
435,0.198855829490728
434,0.199050563607875
433,0.199251118857133
432,0.199648244094278
431,0.199682351841799
430,0.199899646639839
429,0.200394470589411
428,0.200395907823962
427,0.200672890091695
426,0.201012468216382
425,0.201343052416602
424,0.201422074451116
423,0.201692216128015
422,0.202079914462007
421,0.202283276120288
420,0.202675465557461
419,0.20299079422485
418,0.203341905889074
417,0.20355061623456
416,0.203885995129523
415,0.204240358735382
414,0.204849875865108
413,0.205119294421466
412,0.205552033483476
411,0.205708181228
410,0.20611188188938
409,0.206666412023888
408,0.206930748867881
407,0.207395760230029
406,0.207954899882827
405,0.208057911864957
404,0.208352916196777
403,0.209043170948343
402,0.209521437934312
401,0.210010391991191
400,0.210430300269537
