1100,0.00784955615788028
1099,0.00683182480521114
1098,0.00318694107855485
1097,0.00594215662501884
1096,0.00712657592810113
1095,0.00843053428202918
1094,0.00591347442944616
1093,0.00572586664245865
1092,0.00482544960074657
1091,0.00678044468580279
1090,0.00626605836327028
1089,0.00561513974115153
1088,0.00755152206406076
1087,0.00494246846972676
1086,0.0037039308900294
1085,0.00773694263197289
1084,0.00546637688668778
1083,0.00692926388438692
1082,0.00587138614640228
1081,0.00670123024077701
1080,0.00818393181371025
1079,0.00839382264729182
1078,0.00912898928295239
1077,0.00787699579860847
1076,0.00775312260596177
1075,0.0071802339978703
1074,0.00596005443510721
1073,0.00843932336527044
1072,0.00835756272736947
1071,0.00648989591810194
1070,0.00675996269924919
1069,0.00727790922738933
1068,0.0081176743430256
1067,0.00791593090572843
1066,0.0093239181649777
1065,0.00721405330350433
1064,0.00988473386434892
1063,0.00842987444812301
1062,0.00742529274186243
1061,0.00809892257099668
1060,0.00780335288019067
1059,0.00848797006664729
1058,0.00820239708190271
1057,0.0096418039016531
1056,0.00913900858857512
1055,0.00874480832372792
1054,0.00953510169756181
1053,0.00947448471730577
1052,0.00867167831690929
1051,0.00879311944134939
1050,0.00886291459138798
1049,0.00986153633907392
1048,0.00945673250250828
1047,0.00944985404503423
1046,0.00890561087104135
1045,0.00933140293587414
1044,0.00936353866544087
1043,0.00927568019217598
1042,0.00961782537869809
1041,0.0104892595244057
1040,0.0108393159757893
1039,0.0105816077627107
1038,0.0101987373187913
1037,0.0105883715444587
1036,0.00966125764962521
1035,0.010716107436359
1034,0.0101962727277305
1033,0.0110184990950636
1032,0.0100851156621089
1031,0.0109500025964788
1030,0.00953428142005873
1029,0.0100558406440628
1028,0.0106387451385364
1027,0.0107906174908064
1026,0.0108868520251033
1025,0.0104687344673521
1024,0.0114459435169811
1023,0.0108740584504162
1022,0.0126717677492032
1021,0.011807784271862
1020,0.0125360483283273
1019,0.0117366898362827
1018,0.0125530475736734
1017,0.0121929018111654
1016,0.0124822040135163
1015,0.0126129499044097
1014,0.012660227417038
1013,0.0123306179029986
1012,0.0127407762730167
1011,0.0126907979736273
1010,0.0130378593401099
1009,0.0133248423413097
1008,0.0133783907982112
1007,0.0142206583709664
1006,0.0135410520195616
1005,0.0138084593088954
1004,0.0144742998200083
1003,0.0140680365492193
1002,0.0146746688983645
1001,0.0152008601663317
1000,0.0152612360985373
999,0.0150793026587382
998,0.0154485299522682
997,0.0160605063827915
996,0.0156631965853143
995,0.016747567344166
994,0.0166350975464212
993,0.0165873046837909
992,0.016835336075947
991,0.0173252509375402
990,0.0179468937547521
989,0.0172632944877873
988,0.0181691422179307
987,0.018334229097917
986,0.0184129745600796
985,0.0189186520501769
984,0.0190247642018877
983,0.019636956470149
982,0.0195684411589095
981,0.0202227295007191
980,0.0201119319634722
979,0.0204189044938784
978,0.0208438924368347
977,0.0213245134692148
976,0.0212617392276558
975,0.0218527853991374
974,0.0223135958033027
973,0.022528739031636
972,0.0225904968917297
971,0.023219591133813
970,0.023077942252969
969,0.0237590879292119
968,0.0241975125490708
967,0.0242651197077587
966,0.0248987569918243
965,0.0242403200702503
964,0.0257674242869674
963,0.0256326033132183
962,0.0262308694797285
961,0.0264273019794094
960,0.0278194773339955
959,0.0273315634293932
958,0.0287854736975757
957,0.0278651274854553
956,0.0297915482893261
955,0.0288560673830239
954,0.029599601980608
953,0.0309200494470574
952,0.0311538779071646
951,0.0308779403389511
950,0.0310790724691886
949,0.0321775030613918
948,0.0319010538479325
947,0.0332153106099586
946,0.032997462383729
945,0.0332950964332637
944,0.0341967581273125
943,0.0349413086415643
942,0.0355352680361588
941,0.0360585643500405
940,0.0362638553770837
939,0.0370967895542715
938,0.0380141568547863
937,0.0381622891161835
936,0.0390776070946433
935,0.0395686970440703
934,0.0406098720124998
933,0.0407718865364702
932,0.0413983102155696
931,0.0421021256515878
930,0.0436489247016304
929,0.0434212607459051
928,0.0447608000712546
927,0.0452572706739354
926,0.0459162695971854
925,0.0465812264660275
924,0.0482669623111691
923,0.0480878138832712
922,0.0489120051198088
921,0.0495547867619096
920,0.0506619208032953
919,0.0516211656287804
918,0.0522418715361051
917,0.0530975684579118
916,0.0536294399594658
915,0.0550304763311072
914,0.0552731000613304
913,0.0569347206292914
912,0.0579306237504204
911,0.0582253088017473
910,0.0594144522832918
909,0.0607322092193467
908,0.061295816474397
907,0.0622011016889704
906,0.0635404184185434
905,0.0644634915832012
904,0.0654298794340756
903,0.0664851172582807
902,0.0684539763486776
901,0.0689363406218553
900,0.0697614031737899
899,0.0718829438614691
898,0.0726080577789385
897,0.0744158182282269
896,0.0752665430481685
895,0.0758101049204602
894,0.0771853510262439
893,0.0787756677563829
892,0.0800234181755661
891,0.0814620837504496
890,0.0824874362497152
889,0.0838706164448483
888,0.084745904530987
887,0.0870753602101448
886,0.0882418405783407
885,0.0901298628962069
884,0.0914304911482497
883,0.0923149214116012
882,0.0939944096787402
881,0.0956719321566028
880,0.0965996152962589
879,0.0975512220874511
878,0.0999456252128725
877,0.102085723173545
876,0.103563151118751
875,0.104509838751817
874,0.106042934642637
873,0.108972627992955
872,0.110442031887308
871,0.111998226941326
870,0.113916457618525
869,0.115877201930694
868,0.117063646649809
867,0.118058671391466
866,0.120615794976043
865,0.121874594602247
864,0.12345779142152
863,0.125749931626554
862,0.128099358479063
861,0.131167311730142
860,0.13223319480813
859,0.13411570962357
858,0.136503691724682
857,0.137501865030988
856,0.138184923274116
855,0.141424654642092
854,0.143853675382977
853,0.145434395535426
852,0.14811014155137
851,0.148450890977918
850,0.152548406401708
849,0.152127625368343
848,0.155642159927
847,0.156426290557118
846,0.158298399025582
845,0.160798217010542
844,0.164043242116478
843,0.165303526943156
842,0.167202892430498
841,0.168222787030914
840,0.17069207776395
839,0.172742881290341
838,0.174235813246534
837,0.175873780782432
836,0.178504752549291
835,0.180192678525186
834,0.181296310079778
833,0.184159602941937
832,0.185251007548255
831,0.187391742962228
830,0.188853321166818
829,0.190837237209972
828,0.191841361270242
827,0.194263275921146
826,0.19615169307452
825,0.198437761352271
824,0.200198845760601
823,0.200647168444456
822,0.201639212124253
821,0.203022521464801
820,0.204968089030262
819,0.206612880797983
818,0.208058413402935
817,0.209486506743669
816,0.210123761236324
815,0.212191762745817
814,0.213970948113633
813,0.214127313243491
812,0.21579497631694
811,0.216096349540858
810,0.217446431888731
809,0.218170981947133
808,0.218211239293967
807,0.220147306017316
806,0.220950986382607
805,0.220596536772607
804,0.221602885267925
803,0.223169196349517
802,0.222916935115197
801,0.222133096499815
800,0.223999564805153
799,0.223158767282944
798,0.223331117014122
797,0.225167275884856
796,0.225055518073567
795,0.224732620950291
794,0.223641926220165
793,0.224373553935347
792,0.223260515471205
791,0.223984910225927
790,0.223121077599252
789,0.222302577848315
788,0.222544975526227
787,0.221585293128124
786,0.221090978107675
785,0.219360252448396
784,0.220512528667141
783,0.218113917883599
782,0.216729100482379
781,0.216445822900651
780,0.215656596018474
779,0.214601753339108
778,0.213111099105344
777,0.212392486320158
776,0.21035504226966
775,0.209060555535244
774,0.206965891987464
773,0.206308149313957
772,0.204897671767775
771,0.203069868765856
770,0.200685011843355
769,0.199300186690976
768,0.197133916871791
767,0.195148397492727
766,0.193933868009763
765,0.19159542419015
764,0.189783492170357
763,0.188810737206138
762,0.186230200861984
761,0.183207362038684
760,0.181159813336539
759,0.179245058010392
758,0.17719667534216
757,0.174508011656026
756,0.171523056087754
755,0.17080380340093
754,0.167492224755155
753,0.165557675743733
752,0.162123247465963
751,0.160751025403544
750,0.15840157545334
749,0.155424512549903
748,0.153479498771382
747,0.150744599909223
746,0.149001914586907
745,0.14622806022314
744,0.143482472053413
743,0.141481624016655
742,0.138854588065355
741,0.136149871424476
740,0.134286149805211
739,0.132207924096544
738,0.129463798920504
737,0.127166075810078
736,0.125120459605411
735,0.121683604669463
734,0.120088078049236
733,0.118318636161903
732,0.115185624354034
731,0.113336220262328
730,0.110790107191256
729,0.108793778525208
728,0.106590109862528
727,0.105178047283963
726,0.102847983961329
725,0.101434512943124
724,0.0989267659000529
723,0.0969190990779836
722,0.0944435224444823
721,0.0929919660639836
720,0.0911352932484273
719,0.0894847440680121
718,0.0876589056203843
717,0.0860609381916623
716,0.0843808583843383
715,0.0829105439041799
714,0.081156824870162
713,0.0799294666211287
712,0.0781469363979037
711,0.0767574025673121
710,0.0753925311625307
709,0.0740349133708187
708,0.0726939201881816
707,0.0715588853117022
706,0.0701859479406371
705,0.0691456388862198
704,0.06764978267068
703,0.0666291943538776
702,0.0659106120205534
701,0.0642993289427119
700,0.0638741396925012
699,0.0628531010070493
698,0.0620428682190514
697,0.060899704623999
696,0.0601324060474112
695,0.0593657187776502
694,0.0586275796089369
693,0.0581907671334562
692,0.0574255173595488
691,0.0567757093939625
690,0.0562209392315618
689,0.0554816502145526
688,0.0552184207394775
687,0.0547052411154015
686,0.0540791306274223
685,0.054099830067444
684,0.0535791548954078
683,0.0531544389098252
682,0.0530116333143171
681,0.0526561104276039
680,0.0526014673929227
679,0.052341700209773
678,0.052009280050406
677,0.051848007263512
676,0.0518232440084348
675,0.0516649850332642
674,0.0517500125377818
673,0.0515746688336141
672,0.0517861746836777
671,0.0519931734190123
670,0.0520007598014111
669,0.052121984825327
668,0.0521201752478385
667,0.0521682191687337
666,0.0523543738735638
665,0.0529653968304323
664,0.0530267540928365
663,0.0532365397441897
662,0.0535012055188332
661,0.053912193166769
660,0.0544262845428503
659,0.0547567432223429
658,0.0550589199250923
657,0.0555565433324007
656,0.0558996400370056
655,0.0563242507919634
654,0.05694968348806
653,0.0575543544293583
652,0.0579487269572318
651,0.0586809416445731
650,0.0591781665853462
649,0.0596924743556994
648,0.0605033288639351
647,0.0613665312672383
646,0.0619718342293233
645,0.0630413194895653
644,0.0634177916557304
643,0.0645300689919983
642,0.065108012369812
641,0.0661182458252419
640,0.0670715304530265
639,0.0681486064465258
638,0.0689071555185172
637,0.0698504745112994
636,0.0708160484347961
635,0.0719429393839891
634,0.0731690405403795
633,0.0741882731586141
632,0.0753611230806722
631,0.0766912715171621
630,0.0778825854237188
629,0.0797536304921853
628,0.0806854516016113
627,0.0820881936051535
626,0.0832837316873086
625,0.0849115927145766
624,0.0862452511976082
623,0.0881775528824908
622,0.089640826758383
621,0.0912741153958061
620,0.093114735339705
619,0.0952112016105051
618,0.0968707587111764
617,0.0991586753604234
616,0.100863063057947
615,0.102789401911685
614,0.10518520386799
613,0.106951634123511
612,0.109328084126035
611,0.111758289377396
610,0.113941426395064
609,0.116195834462887
608,0.1189565316856
607,0.121648869565157
606,0.124531310063975
605,0.126770661945088
604,0.12951813932133
603,0.132321057072206
602,0.135306875199512
601,0.13874055994474
600,0.141492667403296
599,0.145039245143612
598,0.148447174653491
597,0.151482210815568
596,0.154826793638892
595,0.158298659917716
594,0.16188628182531
593,0.165533989823333
592,0.169290721439869
591,0.173378448232356
590,0.176904814107517
589,0.181004391310632
588,0.185015114883195
587,0.189296562140812
586,0.193442264926907
585,0.197544448657998
584,0.201974312824322
583,0.206653413952366
582,0.210764980198992
581,0.215414525915728
580,0.21979982362406
579,0.22440032936947
578,0.228544362919369
577,0.2334334220575
576,0.237619117997226
575,0.242019104821648
574,0.246480335402522
573,0.250988976717488
572,0.254610365571011
571,0.259235877646574
570,0.263685092260289
569,0.267491476958038
568,0.272175027724554
567,0.27597688419768
566,0.27934748665887
565,0.283336782983198
564,0.287198794363452
563,0.291010405375237
562,0.293956383260824
561,0.297584043351805
560,0.301025853928799
559,0.304042962284939
558,0.306893011871254
557,0.310143863899599
556,0.312661169089612
555,0.315686993031056
554,0.317898861817541
553,0.320298829658134
552,0.322122216377661
551,0.324101550062366
550,0.325750876011485
549,0.327868107204956
548,0.32910853362699
547,0.330463552848188
546,0.33147535201422
545,0.332885808858005
544,0.333652583668437
543,0.334060918778827
542,0.334474670623477
541,0.334498100220752
540,0.334610652599897
539,0.334132652973076
538,0.334013856634388
537,0.333555121323352
536,0.33318951860301
535,0.332099002362641
534,0.330987171011939
533,0.330117924524367
532,0.328749578282347
531,0.327048662778486
530,0.325644212379785
529,0.323929277219444
528,0.322427381044138
527,0.320222282702532
526,0.317879405446018
525,0.315806905807029
524,0.313398325356596
523,0.311162803364157
522,0.308498765300766
521,0.3057643913199
520,0.303112510857939
519,0.300800085587913
518,0.297775309065032
517,0.295139851312184
516,0.291814233224582
515,0.288948909048727
514,0.285804732586149
513,0.282754232123296
512,0.279581983014516
511,0.27653240120538
510,0.273108916023454
509,0.2700312092948
508,0.266892979405174
507,0.263591847768954
506,0.260411274803153
505,0.257465307966005
504,0.25399835825334
503,0.250963048256271
502,0.247875139859416
501,0.244662047685993
500,0.241756063369204
499,0.238703326150643
498,0.235686729097283
497,0.232979176121838
496,0.230315365142559
495,0.227562209874806
494,0.224965515478807
493,0.222152006044732
492,0.22014636057741
491,0.21799472352433
490,0.215683392326347
489,0.213443662791436
488,0.211585513100817
487,0.2098455555279
486,0.207900624695828
485,0.206206009267266
484,0.204939414506452
483,0.203524475424626
482,0.202200633498453
481,0.200822812687894
480,0.199485039526249
479,0.198428359242622
478,0.197375263205888
477,0.196473794499846
476,0.195439508878245
475,0.194584911212116
474,0.193645461865283
473,0.19306950615398
472,0.192361628733313
471,0.191592728106925
470,0.191055173873184
469,0.190694496548902
468,0.190207386951683
467,0.18951424746383
466,0.189178056197789
465,0.189050581349421
464,0.188788747124232
463,0.188400385899384
462,0.188208371742522
461,0.187923781494556
460,0.187678177999396
459,0.187497644108819
458,0.187344958583911
457,0.187156835845502
456,0.187156118888026
455,0.187029435152788
454,0.187012432635533
453,0.187044049089483
452,0.186931331427028
451,0.186897573581621
450,0.186926315354772
449,0.186849449303563
448,0.186882287873221
447,0.187018803524205
446,0.18708586279634
445,0.187322444899973
444,0.187260169761722
443,0.187332366715961
442,0.187465436586502
441,0.187508088149933
440,0.187812071926583
439,0.18784562167423
438,0.188173676077544
437,0.188094633014852
436,0.188459149291212
435,0.188445526342169
434,0.188739733239455
433,0.188875834375031
432,0.189111153243952
431,0.189305688559477
430,0.189614899247693
429,0.189875869419417
428,0.190194912371065
427,0.19029094780225
426,0.19063526933299
425,0.190888456959098
424,0.19105726376583
423,0.191347937175492
422,0.191657237494681
421,0.191926485524656
420,0.192240470079403
419,0.192622036709442
418,0.192791639876707
417,0.193131852698811
416,0.193492984520581
415,0.193819671702066
414,0.194230360320922
413,0.194518061453184
412,0.194999974559969
411,0.195193920236576
410,0.195733253046427
409,0.196247509353669
408,0.196493979556786
407,0.196984976908858
406,0.197392553969782
405,0.197518218148785
404,0.198057751281297
403,0.198699753267733
402,0.199075494897115
401,0.199634675530856
400,0.199836772105847
