1100,0.0077397358743349
1099,0.00633460801543685
1098,0.00528462188248424
1097,0.0106621168628433
1096,0.0032771234052281
1095,0.00620190464044534
1094,0.00484631172930797
1093,0.00786065305643404
1092,0.00522708416839488
1091,0.00488665151025209
1090,0.00738524307599158
1089,0.00713552286515332
1088,0.00811374457971859
1087,0.0081351345267485
1086,0.00763526502958402
1085,0.00463258127294707
1084,0.00732818987143317
1083,0.00572111912595522
1082,0.0079928360209877
1081,0.00667023721666796
1080,0.0075406437761244
1079,0.00598309698343014
1078,0.00847978711494672
1077,0.00588127810062017
1076,0.00629639221955185
1075,0.0056202269999159
1074,0.00809942366267385
1073,0.00520206445322955
1072,0.00538771625009967
1071,0.00691077376313279
1070,0.00910712737893698
1069,0.00948623173826678
1068,0.00674786852663891
1067,0.00689812308109994
1066,0.00876585958254053
1065,0.00742197487775496
1064,0.00793264481194928
1063,0.00830375900763945
1062,0.00827937933017739
1061,0.0067543625296274
1060,0.00781800666760013
1059,0.00794276837393411
1058,0.00818382630014794
1057,0.00886191064522411
1056,0.00828470896961452
1055,0.00908032359578298
1054,0.00699415649926995
1053,0.00839073489426665
1052,0.00906052580831502
1051,0.00847403274447289
1050,0.0088611708969042
1049,0.00819448329939919
1048,0.0097296305912747
1047,0.00818585744072525
1046,0.0087324738695192
1045,0.00678107572511748
1044,0.009879569924455
1043,0.0100708090719024
1042,0.00957778472599657
1041,0.0091334569658752
1040,0.00872700667531457
1039,0.0101952656945478
1038,0.00903055330551832
1037,0.00995202958708898
1036,0.0106352434675251
1035,0.00976280183096467
1034,0.00898358997216455
1033,0.00984972620289552
1032,0.0102713032677441
1031,0.0110346690307303
1030,0.0110717639164805
1029,0.010857629080499
1028,0.0104205547789318
1027,0.0111228309930785
1026,0.0106754082682187
1025,0.0102899105152448
1024,0.0106183456489783
1023,0.0116545454402783
1022,0.0118790233664836
1021,0.0110640366604058
1020,0.0121822261113904
1019,0.0113291255530845
1018,0.0113610905856097
1017,0.0121117624265586
1016,0.0126408787260316
1015,0.0126494069684439
1014,0.0124180045259167
1013,0.0127649011903159
1012,0.0129597623496944
1011,0.0129863532248735
1010,0.0134908213291674
1009,0.0140730366246773
1008,0.0141966396763163
1007,0.0150909342535031
1006,0.0145538206907394
1005,0.0150628206328192
1004,0.0149750342337129
1003,0.0144272258292834
1002,0.0167030709068827
1001,0.0162897194988329
1000,0.016443258637851
999,0.0163049312135465
998,0.0165392481720027
997,0.0165115784240348
996,0.0176022235061178
995,0.0176591867374286
994,0.0181383725347911
993,0.018523150352295
992,0.0190107550470721
991,0.0188786639061932
990,0.0199740575226368
989,0.0195499465857372
988,0.0200982401529778
987,0.0210964327338312
986,0.0205410432241167
985,0.0208791729667003
984,0.0218344654988723
983,0.0221916386976152
982,0.0220668016493681
981,0.0228955704717608
980,0.0230124029606537
979,0.0233564512289297
978,0.0240398672669329
977,0.0245906024693929
976,0.0252950341929667
975,0.0253480484987232
974,0.0255704113697263
973,0.0262816605746987
972,0.0270358933481351
971,0.0262249300319768
970,0.027950561912792
969,0.0278193393420213
968,0.0280987801321299
967,0.0298564273061816
966,0.0293859414986921
965,0.0292908365546559
964,0.0312037182726668
963,0.0312541207087962
962,0.0312235225057634
961,0.0313256454630962
960,0.0312414082844928
959,0.0323938246432136
958,0.0326352851105523
957,0.0334439480470996
956,0.0335433785944242
955,0.0343081828760596
954,0.0343368980083306
953,0.034383126356079
952,0.0345710602249385
951,0.0353486294886036
950,0.0355155752187152
949,0.0364593053903527
948,0.0369040397601187
947,0.0368871028392429
946,0.037744020481795
945,0.0386023210596446
944,0.0385430529426734
943,0.0389169594066338
942,0.0404207278139412
941,0.0413249365093084
940,0.0415943189364453
939,0.0413150574887969
938,0.0428335378048255
937,0.0426905154147287
936,0.0434102182445934
935,0.0446870282669281
934,0.045234632750616
933,0.046050169630724
932,0.0461605034292084
931,0.0474646097453978
930,0.0477741495404806
929,0.0480613267803371
928,0.0500018152660487
927,0.0502527173735708
926,0.0509373630487414
925,0.0513003953272042
924,0.0523187775868163
923,0.0530865696826206
922,0.0539565960777464
921,0.0545442263222279
920,0.0555806966166495
919,0.0561694105062271
918,0.0574953092113113
917,0.0576709317215271
916,0.0579533120395063
915,0.059168911241705
914,0.0603110019307666
913,0.0615432195063039
912,0.0615315573579658
911,0.0633545893298617
910,0.0632021627968658
909,0.0648201917310959
908,0.0658378280799863
907,0.0667023525188934
906,0.0683757654474664
905,0.0688031123263741
904,0.0695754762326344
903,0.0707851828523796
902,0.0717673444981633
901,0.0728548890926559
900,0.0740392110056735
899,0.075261063456194
898,0.0758379697815973
897,0.0771782083958915
896,0.0774655832496968
895,0.0787144106324458
894,0.0799100502187568
893,0.081167122572378
892,0.0817651199515526
891,0.082947578785146
890,0.0837938178834814
889,0.0854027345568684
888,0.0865689904739044
887,0.0874386901147366
886,0.0884154998102194
885,0.0897284370766331
884,0.0908982453419382
883,0.0922385998185985
882,0.0930470283461255
881,0.0940198017783049
880,0.0949304624778121
879,0.0959563475093496
878,0.0975097129209919
877,0.0985260612986243
876,0.0995659220400527
875,0.10020187953603
874,0.101873584880045
873,0.102687410592374
872,0.103456346229889
871,0.104977842652822
870,0.105410185197924
869,0.10807669265283
868,0.108841402432443
867,0.109514681882388
866,0.109853213559232
865,0.110764049490263
864,0.113795705723813
863,0.113684336904303
862,0.113835201255588
861,0.114811147576839
860,0.116611188699486
859,0.117834479078002
858,0.118611784382577
857,0.118932974941558
856,0.120069135605529
855,0.120999109206329
854,0.121925868489041
853,0.122826478413344
852,0.124098084204311
851,0.124341388825469
850,0.126119186435312
849,0.125577692447135
848,0.126336063242494
847,0.128618457647573
846,0.126694415493962
845,0.129319993596061
844,0.130663029482631
843,0.13035094158592
842,0.13105034840138
841,0.131208524214566
840,0.13337147914176
839,0.132222665166268
838,0.133162141085668
837,0.133079207796522
836,0.13374984532384
835,0.134322827517817
834,0.135053005614411
833,0.135235264993028
832,0.135103880723138
831,0.135718420911956
830,0.135606875674277
829,0.13590280046
828,0.136367671005941
827,0.135400558893217
826,0.136133650647452
825,0.136204629875595
824,0.136476647214338
823,0.136070225433797
822,0.136185608854799
821,0.13622110126497
820,0.13502156495057
819,0.135429657979946
818,0.135749664374723
817,0.135066041793113
816,0.135122571756541
815,0.135063074173318
814,0.135305638002916
813,0.135033010501792
812,0.13428611453967
811,0.13372578935036
810,0.132649917257516
809,0.132587736428459
808,0.13212412009441
807,0.131533704246898
806,0.131178376040308
805,0.130718184714605
804,0.129621048953159
803,0.129144067709706
802,0.127508309339
801,0.127148764801114
800,0.126116660017359
799,0.126616484660626
798,0.124841243737981
797,0.123431168858968
796,0.122964129314792
795,0.122203044199368
794,0.121071933385393
793,0.120800503910037
792,0.118617737126835
791,0.118125024077142
790,0.117106321807004
789,0.116140226849135
788,0.115560052757935
787,0.113629049917424
786,0.112234878122113
785,0.112578791643572
784,0.109819478515786
783,0.109256203938545
782,0.108644023399503
781,0.10788739299614
780,0.106238738073799
779,0.105577149166628
778,0.104187882750316
777,0.103680762152992
776,0.101755873193858
775,0.101419996017895
774,0.0989980619485896
773,0.0982230490198186
772,0.0966080223066098
771,0.0965204680389392
770,0.0955812759925899
769,0.0940272911240951
768,0.0926086157071876
767,0.091791984108755
766,0.090221522920784
765,0.0895107009364891
764,0.0882451075480976
763,0.0873546108053441
762,0.0862935914626416
761,0.085262090620833
760,0.0845198649424531
759,0.0832544756727997
758,0.0813084754106051
757,0.0809728803986294
756,0.0797586071813561
755,0.0785249220239215
754,0.0777587214357348
753,0.0767024831254958
752,0.0755970779656003
751,0.0743768617212798
750,0.0735738400873547
749,0.0727619550982828
748,0.071591667955378
747,0.0712747811683342
746,0.0701335568650462
745,0.0688457579206715
744,0.069154987892365
743,0.0679496559579725
742,0.0672834074395435
741,0.0657716522781809
740,0.0655351042876616
739,0.064895750984759
738,0.063941376607911
737,0.0629671594494008
736,0.0626356591233226
735,0.0619090509306227
734,0.061148163430155
733,0.0607013077929105
732,0.0602889039199405
731,0.0597344425259935
730,0.059076101730763
729,0.0592312699653207
728,0.0576480808159634
727,0.0578652277657595
726,0.057231919938598
725,0.0565529732313411
724,0.0560378028409436
723,0.0559800824280568
722,0.0554725615515481
721,0.0553817736011652
720,0.0549215675187341
719,0.0545126174835136
718,0.054292915987992
717,0.0542693915131345
716,0.0536708848519627
715,0.0538092779348334
714,0.0532039140688969
713,0.0534459583665535
712,0.0530572019772884
711,0.0533230169559051
710,0.0529626187038601
709,0.0532557944317577
708,0.0533652521875876
707,0.0527175993674651
706,0.0527934788991916
705,0.0528615362278515
704,0.0533844833109005
703,0.0530116625609628
702,0.0532993108293756
701,0.0533521977550264
700,0.0534213087515589
699,0.0532214116599515
698,0.0536043406295284
697,0.053898858525465
696,0.0540908582343432
695,0.0541157511295151
694,0.0545352159545755
693,0.0545546750608186
692,0.0549820853647283
691,0.0551823537938412
690,0.0556631103194166
689,0.0561636069105274
688,0.0565964379231224
687,0.0565611999321911
686,0.0570639730560282
685,0.0575985401614635
684,0.0579994613694996
683,0.0585565984121398
682,0.0591442609521444
681,0.0594574325315268
680,0.060167667414098
679,0.0605672186940291
678,0.0612333692650708
677,0.0616979590280785
676,0.0625477561728052
675,0.0630310536441107
674,0.0638329089991891
673,0.0645788148115937
672,0.0651474996205361
671,0.0661648489945181
670,0.066854623792142
669,0.0675741359569747
668,0.0683977030778896
667,0.06929530786861
666,0.0702088596132656
665,0.0711367475960677
664,0.0718398157449946
663,0.0730669117975256
662,0.0740706157283273
661,0.0751029546761285
660,0.0762694250827842
659,0.0771953076160739
658,0.0783001123817825
657,0.0793559286245323
656,0.0808197255853243
655,0.0821054872440783
654,0.0833128015122214
653,0.0844627917228259
652,0.0858636751671272
651,0.0871202180581602
650,0.0887216822328128
649,0.0900730351131173
648,0.0919372541842979
647,0.0931443103469152
646,0.0947179586536225
645,0.0964712022754843
644,0.0981659636576316
643,0.0997450818117137
642,0.10148179440129
641,0.103482231930379
640,0.105215777331467
639,0.107126016106957
638,0.109313067874543
637,0.111275834886208
636,0.113085567587659
635,0.115139628054107
634,0.117571003243772
633,0.119961708330441
632,0.122007315929948
631,0.124300512668805
630,0.126475627852128
629,0.129118906408313
628,0.131575161793047
627,0.13417246857716
626,0.136356225661
625,0.13934617807621
624,0.142283716693945
623,0.144804842018219
622,0.147585882131978
621,0.150075196413447
620,0.153668884901344
619,0.156581772086802
618,0.159753331278115
617,0.162684300679543
616,0.165934436576122
615,0.168961073701467
614,0.172469399195962
613,0.175703983549687
612,0.179038244155656
611,0.182899759583499
610,0.18612746932236
609,0.189383310898185
608,0.193649747526978
607,0.197599974448712
606,0.201599638372224
605,0.205259630900596
604,0.209117489692216
603,0.213082854347577
602,0.217222357287866
601,0.221471565067202
600,0.225883930556925
599,0.230421620305617
598,0.234781771597746
597,0.238855799921396
596,0.243099959392156
595,0.247851045618295
594,0.252286960966402
593,0.256960346298744
592,0.26179769597716
591,0.26656355202761
590,0.27121926395718
589,0.275596549876317
588,0.280918069625053
587,0.285330302068628
586,0.290986931701477
585,0.295253660246418
584,0.300571072917145
583,0.304910319776056
582,0.30956381950932
581,0.315152661827347
580,0.319788068539896
579,0.324939132724648
578,0.329353712379223
577,0.334105388113966
576,0.338904007481028
575,0.343214669274823
574,0.347792978852794
573,0.352036639589537
572,0.356238422002792
571,0.360571620068193
570,0.364176292112619
569,0.36844710316609
568,0.372365237519179
567,0.37619089943596
566,0.379211548456495
565,0.382777991760922
564,0.386191640711606
563,0.389340003646242
562,0.392231389162671
561,0.394758295468634
560,0.397170479739853
559,0.399715033827304
558,0.402298541086802
557,0.403709011896284
556,0.405895148411836
555,0.407695483756201
554,0.40925050232707
553,0.410552905278886
552,0.411394422390811
551,0.412300378935804
550,0.413000919842285
549,0.412914600803045
548,0.413533180776065
547,0.413421639894216
546,0.413001690326172
545,0.412364063412505
544,0.41202357371869
543,0.410924181490553
542,0.409831988275353
541,0.408985059702965
540,0.407158657811723
539,0.405724834179887
538,0.403452635804324
537,0.401627961953414
536,0.399502828635659
535,0.396993930563523
534,0.394522171967543
533,0.392109734164756
532,0.389387463866212
531,0.386244553640086
530,0.382819365148643
529,0.380073322465494
528,0.377314787101912
527,0.373644723542256
526,0.369956840293717
525,0.366575696086604
524,0.3629040017579
523,0.359467113539076
522,0.355290763810988
521,0.351339328413124
520,0.347295821622509
519,0.343657198650932
518,0.340192070697088
517,0.336140956190772
516,0.332108484200881
515,0.327946757445378
514,0.323686350015543
513,0.319834614169367
512,0.316268978555036
511,0.31189707354688
510,0.30796102180585
509,0.304269666876235
508,0.300230596555536
507,0.296306375217931
506,0.292433181984976
505,0.288755903885723
504,0.285018327826534
503,0.281248035161654
502,0.277534665489993
501,0.274015917949895
500,0.270557690144288
499,0.267310121305979
498,0.264074151526226
497,0.261156024012124
496,0.258046349090306
495,0.254973914760423
494,0.252068502879825
493,0.249169901878377
492,0.246900162202479
491,0.244724391747185
490,0.242177765740359
489,0.239836247304892
488,0.237922418171787
487,0.236070121257659
486,0.233946165152882
485,0.232113718119922
484,0.230829018607143
483,0.22934790211793
482,0.227951881830064
481,0.226560465454317
480,0.22522883972845
479,0.224079436617929
478,0.222870660587937
477,0.221912373358017
476,0.220983105994496
475,0.22023403739565
474,0.219408385299885
473,0.218708924569743
472,0.218008364852051
471,0.217494096809351
470,0.216575845084265
469,0.21639895456958
468,0.216034619309926
467,0.215543516797502
466,0.215170593867781
465,0.214980260565348
464,0.214392118196625
463,0.214282335551255
462,0.21405314932041
461,0.213796978628291
460,0.213740062912174
459,0.21362066578243
458,0.213405495131709
457,0.213424790114725
456,0.213359799906913
455,0.213336657955865
454,0.213433930142735
453,0.213312375040611
452,0.213335008028387
451,0.213300741720796
450,0.213515267938154
449,0.213496857686072
448,0.21376835044588
447,0.213909858120192
446,0.214131382030873
445,0.214213104915491
444,0.214384399853841
443,0.214426131429173
442,0.214608584514881
441,0.215001961399428
440,0.214981322224763
439,0.215259651432582
438,0.215512817405108
437,0.215520300713485
436,0.2158262913492
435,0.216153574915686
434,0.21637829150291
433,0.216713239556878
432,0.216939611057575
431,0.217209167474294
430,0.217559922293678
429,0.217739679671914
428,0.218065757199947
427,0.218349922548696
426,0.218764995920952
425,0.219073839335903
424,0.219379599325954
423,0.219697165698255
422,0.220216328690198
421,0.220395340204992
420,0.220708831044977
419,0.221184575105225
418,0.221580334688041
417,0.222019009113689
416,0.222484179794474
415,0.222722355844631
414,0.22324809321116
413,0.223721428971955
412,0.224198057320417
411,0.224591928206851
410,0.2249863739079
409,0.225413148650313
408,0.226009709639546
407,0.226500238840546
406,0.226979971993583
405,0.227729975239171
404,0.227765399200194
403,0.228216454440269
402,0.228812672543855
401,0.229454272058233
400,0.229901987363218
