1100,0.0253908323593486
1099,0.0229064036505111
1098,0.0216562882987527
1097,0.0253704141348717
1096,0.0258270345966868
1095,0.0241289855066335
1094,0.0242270449080408
1093,0.021138310588516
1092,0.0240272548330731
1091,0.0230514632973107
1090,0.0244878872195344
1089,0.0240339303489674
1088,0.0222446841952569
1087,0.0284539033281445
1086,0.025993327422398
1085,0.0262766829498478
1084,0.0259360574700013
1083,0.0282796483657413
1082,0.0253142140875212
1081,0.0262839981530172
1080,0.0269048091113688
1079,0.0284722005627551
1078,0.0274670232421875
1077,0.0283523428163225
1076,0.0288735516046596
1075,0.0296193609107885
1074,0.0269888978954181
1073,0.0308869733019893
1072,0.0299360698455558
1071,0.0293710401635702
1070,0.0290277309375116
1069,0.0310934763808605
1068,0.0290721520461674
1067,0.0303792788371191
1066,0.0289965420080763
1065,0.0312569024705192
1064,0.0323785408498794
1063,0.0325572665635803
1062,0.0320495119528067
1061,0.0339251505590781
1060,0.0338683363197478
1059,0.0341048220250558
1058,0.0334391672305036
1057,0.035431139394274
1056,0.0351141319587997
1055,0.0356890206990429
1054,0.0360804195571331
1053,0.0355581083280155
1052,0.0364961873048966
1051,0.0370396998639375
1050,0.0370876546994898
1049,0.037599869644637
1048,0.0367307000327466
1047,0.0378940660845187
1046,0.0386416772945779
1045,0.0384532467481045
1044,0.0398218411984724
1043,0.0402005138697454
1042,0.0402678756093732
1041,0.0409851646497513
1040,0.0421237737194611
1039,0.0414791865581441
1038,0.0421574601449451
1037,0.0432114440294625
1036,0.0433098759458216
1035,0.0424795955104423
1034,0.0430351974025446
1033,0.0436940653303363
1032,0.0451873784518243
1031,0.0452896495516381
1030,0.0450678150063651
1029,0.0466953559598841
1028,0.046620390253064
1027,0.0478296046116362
1026,0.0472283283305198
1025,0.0477132987105312
1024,0.0488990259192044
1023,0.049941319462136
1022,0.0492394816326282
1021,0.0503106988170516
1020,0.0511947477501208
1019,0.0519889134316123
1018,0.0523955220275371
1017,0.0522253475638887
1016,0.0533928551161647
1015,0.0536061271149816
1014,0.0543961219457383
1013,0.0551109048188084
1012,0.0558884523049088
1011,0.0560062323585274
1010,0.0565046776789223
1009,0.057520457119061
1008,0.057738929884767
1007,0.0586080852866637
1006,0.0589389259136545
1005,0.0605113034201807
1004,0.0601698973606873
1003,0.0616317248378074
1002,0.0611827623147266
1001,0.0634103327035199
1000,0.0633680377748221
999,0.0645750302821968
998,0.0647436841005434
997,0.0654207908402823
996,0.0661986137935638
995,0.0671267257520536
994,0.0675878971735087
993,0.0685981322127441
992,0.0694589402021623
991,0.0698577104597608
990,0.0706955540792986
989,0.0714573480769005
988,0.0716726584083423
987,0.0737370067642075
986,0.0744786844406534
985,0.0755843853138911
984,0.0755141511316571
983,0.0763440403062592
982,0.0771392197442701
981,0.0787130453238647
980,0.0791246940661746
979,0.0795551382030274
978,0.0808500029805173
977,0.0815873522264336
976,0.0825049649067177
975,0.083449270676807
974,0.0842105644713673
973,0.0865882013243244
972,0.0856713258956727
971,0.0873793327381087
970,0.0881247533829534
969,0.0889159593779801
968,0.0903096647753729
967,0.0914621245515087
966,0.0922678911258793
965,0.0928697764665527
964,0.0941640184912689
963,0.0956707060751266
962,0.0965956058563298
961,0.0971500681530735
960,0.0980491551502981
959,0.0993627228049756
958,0.100222778982033
957,0.101012967711185
956,0.102680131098907
955,0.103955706464805
954,0.104614037578173
953,0.106374007692548
952,0.107676581830795
951,0.10835961755933
950,0.109317362935591
949,0.111130504206457
948,0.112591036175662
947,0.112882759386262
946,0.114573863890419
945,0.116248201426067
944,0.117770275634584
943,0.118563791236865
942,0.11935811194977
941,0.120643954253151
940,0.122609904854321
939,0.123916099740637
938,0.124658223323766
937,0.126166395084758
936,0.127120319351038
935,0.128826696034265
934,0.130361775427174
933,0.130588229615064
932,0.132356796790102
931,0.133627501260228
930,0.135037037711924
929,0.136570335451855
928,0.13709664830652
927,0.139239368797142
926,0.140228733762126
925,0.141311670163599
924,0.143319618958543
923,0.143759231864244
922,0.14617702504764
921,0.147002297276124
920,0.148348011545882
919,0.15021206753586
918,0.15117562811104
917,0.15257113709396
916,0.153772700737529
915,0.15541051752324
914,0.156712948397222
913,0.157451066088214
912,0.159550957340059
911,0.160523722914965
910,0.162207141133235
909,0.162997913694603
908,0.165061564582106
907,0.165931136557014
906,0.167733260172776
905,0.169015965783406
904,0.169965929171521
903,0.170613315616127
902,0.171777603973531
901,0.173667253401439
900,0.175022862546237
899,0.175890934926081
898,0.17815407182312
897,0.178808670626844
896,0.180097204190689
895,0.18076231556202
894,0.182244562334374
893,0.183887535598664
892,0.184779984093999
891,0.185979912258987
890,0.187298258932843
889,0.188270942738609
888,0.189539438260567
887,0.19066610663139
886,0.191017637898515
885,0.192503587771022
884,0.193439880645567
883,0.194205422240637
882,0.19513079015321
881,0.196196304391207
880,0.196662211287702
879,0.198115466877458
878,0.199665133653678
877,0.200638334683828
876,0.200893312279591
875,0.20228971003807
874,0.202918920770099
873,0.203718790549003
872,0.203020992885774
871,0.205879896334271
870,0.206068944609722
869,0.206107263431717
868,0.207056743667483
867,0.208421051545513
866,0.207880570915629
865,0.209083470740665
864,0.209069687958488
863,0.210448454905286
862,0.211912609066319
861,0.212819564599441
860,0.211768462583518
859,0.212609056113017
858,0.212028247524576
857,0.213958153242711
856,0.213880714188544
855,0.21569406877627
854,0.215708446243061
853,0.215957447577054
852,0.215756090955096
851,0.214021114422623
850,0.215654682059748
849,0.216880405307256
848,0.21784730478784
847,0.217593159196936
846,0.216929415832222
845,0.21760405359406
844,0.218607337781428
843,0.217568167200827
842,0.218215560442442
841,0.218881530974897
840,0.218252398909208
839,0.219318773245486
838,0.218699929839622
837,0.21774822715725
836,0.2188079217405
835,0.217691133146386
834,0.218664552375135
833,0.21716874681887
832,0.217403298790513
831,0.217277724726396
830,0.217680279295815
829,0.215759536891421
828,0.21578770100089
827,0.215432847599044
826,0.215197827568186
825,0.213795962210806
824,0.213815613370443
823,0.214123753085801
822,0.212272319578856
821,0.211754973696663
820,0.210534951993627
819,0.210620078920944
818,0.210105788137633
817,0.209207744995704
816,0.2075999569296
815,0.207020133866339
814,0.205640885763185
813,0.204668821913015
812,0.204612385013902
811,0.203352903376057
810,0.202315034204472
809,0.2008647822033
808,0.19916004268311
807,0.198416422944482
806,0.197662934024809
805,0.194841791036121
804,0.195067790934833
803,0.193191138673777
802,0.192353889046221
801,0.190629005774298
800,0.189855749143051
799,0.188058629277576
798,0.187044168551482
797,0.185823550135774
796,0.1832951531315
795,0.181728400308274
794,0.180626888962055
793,0.178585583917201
792,0.177753740505397
791,0.175141558355399
790,0.17396703103875
789,0.171650176862537
788,0.169986373922442
787,0.169407784225192
786,0.16642991351182
785,0.165301671006736
784,0.163622122389342
783,0.161404629836062
782,0.159135700117765
781,0.158321842673024
780,0.156411335493167
779,0.155619675386116
778,0.152879811111637
777,0.150171096775868
776,0.14783110538627
775,0.146575062656129
774,0.144255109201492
773,0.142935128998729
772,0.141286367389677
771,0.138665638389035
770,0.137379915788269
769,0.134753387364404
768,0.133543563727712
767,0.131477183977063
766,0.128870821549434
765,0.127445193981641
764,0.125939881866815
763,0.124074625831595
762,0.12259311778879
761,0.120153205402197
760,0.118002586986373
759,0.116209094750593
758,0.114457746974441
757,0.11287876461296
756,0.110837516172421
755,0.108094919962251
754,0.107151127580204
753,0.105548332655424
752,0.103352162033285
751,0.101803942308003
750,0.100194152538429
749,0.0985045288589678
748,0.0971269527677386
747,0.0943917250499384
746,0.0936030449136868
745,0.0917265293066252
744,0.0894755831907023
743,0.0883167015894966
742,0.0867083200024474
741,0.0849250645420679
740,0.0834482668398917
739,0.0820182442656653
738,0.0807182446661102
737,0.079177528838482
736,0.0776880728533052
735,0.0760498196772039
734,0.0751076629439071
733,0.0739168678304564
732,0.0718202384595999
731,0.070915150008399
730,0.0694073049313571
729,0.0677222053445269
728,0.0667324463149183
727,0.0656131966457406
726,0.0645754507838345
725,0.063091425086568
724,0.0623947458280543
723,0.0608924674873146
722,0.0599159651773424
721,0.0587477645437873
720,0.0576932221203039
719,0.0564521424626004
718,0.0560466382750158
717,0.0546605267365197
716,0.0537852522634403
715,0.0530777065105269
714,0.051957723427005
713,0.0515417013950681
712,0.0504029910150453
711,0.0496883332857524
710,0.049150132188309
709,0.0479194632163041
708,0.0475773253209437
707,0.0470190589049307
706,0.0461342775423815
705,0.045419907703329
704,0.0447772720337125
703,0.043959536761258
702,0.0432770151641834
701,0.0427953996085368
700,0.0424786534961766
699,0.0419541547826397
698,0.041542046990665
697,0.0411856545316168
696,0.040403113407003
695,0.0402603494328236
694,0.039413621648111
693,0.0393130081885416
692,0.0389456411245959
691,0.0385591210172233
690,0.0381241067391156
689,0.0380507189545615
688,0.0375877039903099
687,0.0373682162286084
686,0.0370418987352705
685,0.0368297307578973
684,0.0367584488975034
683,0.0361262712489763
682,0.0359690454250742
681,0.0357938577233235
680,0.0356892174204283
679,0.0355354927810264
678,0.0355400438896194
677,0.0354561088916568
676,0.035214900130513
675,0.0350568813526585
674,0.0348610515434666
673,0.0349384751254879
672,0.034832161496591
671,0.0349615365557555
670,0.0348208584381919
669,0.0347817627826527
668,0.0350858986088446
667,0.0349379981988571
666,0.034885651671095
665,0.0351267056516771
664,0.0349045585314687
663,0.0353547511964487
662,0.0349341828046653
661,0.0353749422114946
660,0.0355097321579337
659,0.0355568721683126
658,0.035643130845075
657,0.0359077174730694
656,0.0359893212654437
655,0.0363620478811823
654,0.0364388668384546
653,0.0365167974945804
652,0.037011341059582
651,0.037401789710155
650,0.0374608740550035
649,0.0378270432628358
648,0.0380072347017664
647,0.0382185372223494
646,0.0385712007534537
645,0.0390123553886132
644,0.0393210847466462
643,0.0399229699196266
642,0.039978169349274
641,0.0405538249088906
640,0.040839536032917
639,0.0413370364803768
638,0.0420036533968155
637,0.0423250183320058
636,0.0428619936519793
635,0.0433435686933788
634,0.0437795219173276
633,0.044410990165559
632,0.0450741901267819
631,0.0456079644366485
630,0.0460783477086457
629,0.0465132241595491
628,0.0475015430387981
627,0.0479465487259743
626,0.0488778776063133
625,0.0495044490452179
624,0.0502527754964551
623,0.051251952125577
622,0.0521518147537222
621,0.0526965273196355
620,0.0537943056835535
619,0.0544074473445631
618,0.0554047996522585
617,0.056277100425403
616,0.0574783182060747
615,0.0584898049180471
614,0.0596252683877875
613,0.0606177242003023
612,0.061798552876404
611,0.0631177373295845
610,0.0643358908896011
609,0.0655932356978954
608,0.0669592280165105
607,0.0682338642322564
606,0.0697058112468702
605,0.071213779924399
604,0.0726776399097652
603,0.0743465100195473
602,0.0759746999575286
601,0.077612452597087
600,0.0793638840660413
599,0.0813341042454382
598,0.0832362269383589
597,0.0848400542402178
596,0.0869078327585587
595,0.0889763214523914
594,0.0912110698867201
593,0.0933930510480574
592,0.0958105339388297
591,0.0982014017826846
590,0.100568238275591
589,0.102930228648867
588,0.105539453726315
587,0.108248072856404
586,0.111034323781774
585,0.113655011056643
584,0.116790882334224
583,0.119870272755693
582,0.122875391530365
581,0.12615075059429
580,0.129345201417284
579,0.132643769038821
578,0.13585947661718
577,0.139789392500273
576,0.143251319507188
575,0.146307560905636
574,0.150417198932996
573,0.153918379783049
572,0.157785415625835
571,0.161342434122412
570,0.16545733209266
569,0.169179498975549
568,0.173250203435271
567,0.176806403810047
566,0.180498643472251
565,0.18454026909411
564,0.188807058787617
563,0.192630668572492
562,0.196072119815248
561,0.200233612507402
560,0.203863766454234
559,0.208032752119758
558,0.211442486047396
557,0.214839889583462
556,0.218659498686881
555,0.222207789681791
554,0.225296369996801
553,0.22816729170424
552,0.231305931867956
551,0.234917001585878
550,0.237702384732892
549,0.240524303209061
548,0.243546915368319
547,0.245481920513992
546,0.247899281247694
545,0.250419230390005
544,0.252385724170755
543,0.254401152111419
542,0.256187263199112
541,0.257655434983138
540,0.259010701069412
539,0.260534069063012
538,0.261812028145676
537,0.262759946650553
536,0.263835570190093
535,0.264556610686778
534,0.265047612440634
533,0.265348851299588
532,0.26546575143835
531,0.26581086428761
530,0.265504629733688
529,0.265220635968064
528,0.264924678935224
527,0.264113999157421
526,0.263540507719011
525,0.262775116522865
524,0.26157137665118
523,0.260399723366554
522,0.259163846049829
521,0.25805450860056
520,0.256211871101628
519,0.254815257998851
518,0.253232890367569
517,0.251212246981776
516,0.249635892029683
515,0.247245510027136
514,0.245269772123346
513,0.243067702075343
512,0.24077195317617
511,0.238562787279012
510,0.236027327110832
509,0.233610563653594
508,0.231135148895026
507,0.228506202964432
506,0.226169424909849
505,0.223596960535342
504,0.221053639697556
503,0.21809685145313
502,0.215751283706889
501,0.213017915284946
500,0.210654134364471
499,0.207877270486379
498,0.20546427957169
497,0.203072513095419
496,0.200866714296275
495,0.19823357697485
494,0.195864289733363
493,0.193466027632516
492,0.191575224093071
491,0.189739414508013
490,0.187553733948867
489,0.185496313198069
488,0.183916513732547
487,0.1823771458038
486,0.180426514669554
485,0.178844189135985
484,0.177730627240721
483,0.176489425341643
482,0.174966005420064
481,0.173658604212933
480,0.172473288367806
479,0.171388290294645
478,0.170447746950732
477,0.169396351818336
476,0.168454919136796
475,0.167638886297298
474,0.166762091274845
473,0.16592631933276
472,0.165467297211413
471,0.164762913754516
470,0.164218967792774
469,0.163605936530931
468,0.163221011644768
467,0.162654596957838
466,0.162095424368892
465,0.161960131770335
464,0.161278558599705
463,0.161113396487417
462,0.160887141581523
461,0.160593856986058
460,0.160355477297503
459,0.160107946656567
458,0.159994373873073
457,0.159757033434775
456,0.159519224627597
455,0.159469892152568
454,0.159225143940943
453,0.159260665157936
452,0.159009352431169
451,0.158980869540409
450,0.158994233495068
449,0.159056056468986
448,0.158880093182232
447,0.158899686753852
446,0.15892566359449
445,0.158851581449509
444,0.158884161108199
443,0.159010547036211
442,0.158912189780611
441,0.159121211578678
440,0.158996659955528
439,0.159163072826511
438,0.159099367658995
437,0.159257340756778
436,0.159408159706748
435,0.159447395414575
434,0.159619439126736
433,0.159665760168824
432,0.159862277632764
431,0.159947157292132
430,0.159997965835774
429,0.160222934271491
428,0.160494466268501
427,0.160536797264832
426,0.160845563704153
425,0.161028138590036
424,0.161114259279357
423,0.161318939447766
422,0.161483579046656
421,0.161796438596584
420,0.162083543697552
419,0.162374826614126
418,0.162588984909981
417,0.162797637722897
416,0.163111219564359
415,0.163283891699776
414,0.163518829997439
413,0.163900205869086
412,0.16405714044027
411,0.164409505743504
410,0.164721341437039
409,0.164964211822462
408,0.165311367415153
407,0.165655085827894
406,0.165987581716621
405,0.166221406530983
404,0.166467737958132
403,0.167120120170733
402,0.167383022253879
401,0.167715130266321
400,0.167855275846034
