1100,0.0155491828078235
1099,0.0108988496616392
1098,0.0123789566993114
1097,0.015631611047078
1096,0.0163332328708891
1095,0.0195723947130375
1094,0.0153071939214926
1093,0.0179637014343114
1092,0.0184471938595363
1091,0.0146037193748821
1090,0.0136319947636142
1089,0.0168950246408438
1088,0.017661424442331
1087,0.0166746913404641
1086,0.0158472541989536
1085,0.0168111723441771
1084,0.0175789065912088
1083,0.0193397649374189
1082,0.0156970657044188
1081,0.0179167063135747
1080,0.0170043852552465
1079,0.0169648690622408
1078,0.0182855199174241
1077,0.0174895860871954
1076,0.0185942297850087
1075,0.019484368956571
1074,0.0178026388533501
1073,0.0169937252196106
1072,0.0197505044517094
1071,0.016622429370494
1070,0.0182624092682671
1069,0.0185723995158339
1068,0.0187295587087908
1067,0.0193982558223875
1066,0.0189699742113657
1065,0.0193067742480596
1064,0.019833571466468
1063,0.0191096130834475
1062,0.0194247024596257
1061,0.0188002124045171
1060,0.0185148031320726
1059,0.0208257508321399
1058,0.0197447884214774
1057,0.0205007968753589
1056,0.0205531748510756
1055,0.0202398153368678
1054,0.0210892315628712
1053,0.0208556794544023
1052,0.0203684959880006
1051,0.0211158085526967
1050,0.0215015209826021
1049,0.0212354251377133
1048,0.0210771392991058
1047,0.0200909199561347
1046,0.0211707612293735
1045,0.0209925028787705
1044,0.0221458182702932
1043,0.0206053691383225
1042,0.0214916747615022
1041,0.021909519383165
1040,0.0217586081046226
1039,0.0216800700606762
1038,0.0222448749200863
1037,0.0228588706529486
1036,0.0229978278860034
1035,0.0224305171375622
1034,0.0228520767516033
1033,0.0223712894134655
1032,0.0226745998616835
1031,0.0216926689359307
1030,0.0233906525038853
1029,0.0224445552649993
1028,0.0231082175938241
1027,0.0221912845378433
1026,0.022977985827169
1025,0.0229781495818538
1024,0.0239979822658833
1023,0.0246908759843933
1022,0.0245392418078079
1021,0.0242754396209761
1020,0.0239166039537518
1019,0.0241549008124092
1018,0.0250682049611817
1017,0.0255961931741644
1016,0.0251808229774613
1015,0.026184758399999
1014,0.0261947390951128
1013,0.0259222357673074
1012,0.026425623868297
1011,0.027097827127429
1010,0.026485654760849
1009,0.0273675955300706
1008,0.0271702137824015
1007,0.0276277935623413
1006,0.0273828418407513
1005,0.0275862782842835
1004,0.0287329784668001
1003,0.0283095977791408
1002,0.0283545534045378
1001,0.029684075622097
1000,0.0301921230448415
999,0.0307923449689046
998,0.0306612611294792
997,0.030849703118465
996,0.0302502900762559
995,0.0312718964730565
994,0.0315116482708906
993,0.0320126991962854
992,0.0319669732362503
991,0.0330965113922411
990,0.0329054167786131
989,0.0329511858045731
988,0.0342684890829783
987,0.0341572705451819
986,0.0344673866751403
985,0.0347488399030722
984,0.0355248456206818
983,0.0364979610942303
982,0.0366220880271067
981,0.0365919259744979
980,0.0371144677356237
979,0.0374236279727987
978,0.0374529448865447
977,0.037947567491905
976,0.0387460975299687
975,0.0394776296069595
974,0.0393249955550695
973,0.0402373457017527
972,0.0403633131603263
971,0.040721476172621
970,0.0420770848321619
969,0.041470841928815
968,0.042485790018782
967,0.0421593713075265
966,0.0425169637244422
965,0.0428734793714543
964,0.0438318061636859
963,0.0442799449702082
962,0.0445536625188893
961,0.0455528785503563
960,0.0454362897202328
959,0.045645602809957
958,0.0449816164845573
957,0.047197853491205
956,0.0471105387573741
955,0.0471166265584538
954,0.047134861620178
953,0.0481296587012068
952,0.0479819329824206
951,0.0480652303457598
950,0.0478436212144461
949,0.0490328056149691
948,0.0489067033012711
947,0.0494630227249373
946,0.0494586134333335
945,0.0499202945694132
944,0.0507903088099382
943,0.0515882821134305
942,0.0515632713193913
941,0.0521130245718516
940,0.0522194212747341
939,0.0529043991083246
938,0.0532520487721593
937,0.0538798390532631
936,0.0539732153644475
935,0.0552526092078432
934,0.0549111980739463
933,0.056097003681863
932,0.0557465697622823
931,0.0564259067148557
930,0.0570748073314017
929,0.0577420048359258
928,0.0574395516532027
927,0.0585333157884707
926,0.0588909572219185
925,0.0591625334754599
924,0.0607432842542088
923,0.0601116846405185
922,0.0603324764451715
921,0.0610208179831083
920,0.0615224008522691
919,0.0629072840083668
918,0.0631271370838608
917,0.0637073519162176
916,0.0642549664442877
915,0.0649926086799374
914,0.0659627371555594
913,0.0665148943016681
912,0.0672617980220643
911,0.0679646399233964
910,0.0680055684594573
909,0.0693257640804284
908,0.0699742927342941
907,0.0700499937060796
906,0.0714748338616647
905,0.071836639339181
904,0.0718021890454549
903,0.0730228390541639
902,0.0739095332459479
901,0.0748711740720278
900,0.0751900505042286
899,0.0753994597216802
898,0.0763267585513454
897,0.0771891852139351
896,0.0777614770252349
895,0.0784559473537349
894,0.0796834341461316
893,0.0805510009904524
892,0.0816728528564009
891,0.0827282980950961
890,0.0822762715404042
889,0.084216221004212
888,0.0841116813242173
887,0.085003259755329
886,0.0855827017066646
885,0.0868673600768783
884,0.0880064297104742
883,0.0885955772395127
882,0.0895929397398713
881,0.0906127849234718
880,0.0911958687929718
879,0.0918714896275717
878,0.0935270745483623
877,0.0938796494794204
876,0.0953121612635016
875,0.0964649959615009
874,0.0973378534051672
873,0.0978752335925844
872,0.0993611608532956
871,0.0998388917583824
870,0.101466916209002
869,0.101707089628236
868,0.103015179780666
867,0.103682997038131
866,0.10449851143538
865,0.105938954094714
864,0.10646677985374
863,0.108071081850002
862,0.110082327824074
861,0.110421736381529
860,0.111807110148977
859,0.113972555249514
858,0.114029131344977
857,0.114256385033765
856,0.115956643753374
855,0.1164402338197
854,0.11748950135563
853,0.118987817834032
852,0.119080906602973
851,0.121033005649349
850,0.121108504006735
849,0.123194629933911
848,0.123617457848216
847,0.12549356831072
846,0.12665882684675
845,0.127719315914346
844,0.128636732392072
843,0.129655729759706
842,0.130928622366076
841,0.131414995651683
840,0.13285967634587
839,0.133158307094241
838,0.135017679183867
837,0.135931897819644
836,0.137249194961328
835,0.137809750029135
834,0.138466088772484
833,0.139172028953483
832,0.140959749913533
831,0.14146717481471
830,0.142705490012257
829,0.144026358256286
828,0.144221335513548
827,0.145217933289531
826,0.146044173238332
825,0.146426168315724
824,0.14805043959625
823,0.148151100382899
822,0.148293375863978
821,0.150407060838982
820,0.15019502030369
819,0.151496446733304
818,0.151914963681148
817,0.153116147048498
816,0.152923026053261
815,0.153502462554824
814,0.154913320376424
813,0.154892019887663
812,0.155193134193091
811,0.155429992207011
810,0.156591424243448
809,0.15641226321168
808,0.15806105212333
807,0.156949150785539
806,0.157933191935158
805,0.157788356513209
804,0.158348306816277
803,0.15822319408486
802,0.158542513503149
801,0.158826840454899
800,0.158674171566245
799,0.158714348277001
798,0.158451905220816
797,0.158810421870001
796,0.1581345524556
795,0.158112422815654
794,0.158384911993383
793,0.158369628397628
792,0.157600031016063
791,0.156056461579745
790,0.157137565896154
789,0.156511948834994
788,0.155701099396743
787,0.155050874207046
786,0.155250199276384
785,0.15360616487191
784,0.153390272223745
783,0.153166125799564
782,0.152477831138193
781,0.151761877944256
780,0.151110810966424
779,0.149819309747533
778,0.149629219855261
777,0.148205463268933
776,0.146947431219968
775,0.146555291771819
774,0.144020623895276
773,0.143184650592947
772,0.142150003485457
771,0.141895763874518
770,0.140351700260675
769,0.138812928696625
768,0.137662550712384
767,0.135879368237145
766,0.134843208764348
765,0.134052437422681
764,0.132215224373298
763,0.131049123271321
762,0.129675478820686
761,0.127377540894126
760,0.126731774582419
759,0.125354215245064
758,0.124088473352136
757,0.122104448945398
756,0.121115996403719
755,0.118961093399315
754,0.117342008934809
753,0.115303623934204
752,0.113723990482628
751,0.112451468970487
750,0.110903944225682
749,0.108740540381224
748,0.10743626781769
747,0.105549388896991
746,0.10353377797717
745,0.102475994281427
744,0.100605700475121
743,0.0989875602451786
742,0.0974435203273951
741,0.0961920382178544
740,0.0943625796670355
739,0.0923040998328002
738,0.0911467562905607
737,0.0892004970184783
736,0.0881051573642277
735,0.08664223639755
734,0.0844160381506334
733,0.0835067755835049
732,0.0819737227041585
731,0.0800787592084313
730,0.0790660584111264
729,0.0773789888912138
728,0.0756791270395362
727,0.0746143417676785
726,0.0731932743703386
725,0.0718827605884568
724,0.0705257914669062
723,0.0690751939189394
722,0.068367736066946
721,0.0670550970832068
720,0.0654490503698646
719,0.0645939532589812
718,0.0632507597897182
717,0.0619080061117993
716,0.0612232652861658
715,0.0601939220447838
714,0.0592526911553283
713,0.058673919169735
712,0.057290899819301
711,0.0561041318896212
710,0.0553144962986641
709,0.0545733425341592
708,0.0535571917846314
707,0.0525954483132278
706,0.0521077127173336
705,0.0510506634006967
704,0.0506237870141546
703,0.0502368501170903
702,0.0489934526631084
701,0.0484688459102625
700,0.0478569735331006
699,0.0472498582465533
698,0.0467042916054273
697,0.0461634686949911
696,0.0456986010993514
695,0.0451371710071747
694,0.0444516219196573
693,0.0444575865338085
692,0.044176077246402
691,0.0433520351936838
690,0.0428952802167504
689,0.0430858198904109
688,0.0426763214336321
687,0.0425752063128371
686,0.0422292914102233
685,0.0420209906510053
684,0.0420209336194293
683,0.0415174656838604
682,0.0412072854260389
681,0.0416693052687073
680,0.0411159022361134
679,0.0408703358266359
678,0.041063147230979
677,0.0407653183572015
676,0.0408742606109936
675,0.0407774311807072
674,0.0408288149182493
673,0.0408231558689524
672,0.0411210528793336
671,0.0412497818862547
670,0.0413450938245667
669,0.0413258475542177
668,0.0416129788386888
667,0.0418085429557172
666,0.0419991766195969
665,0.0419863453482242
664,0.0423231635116095
663,0.0424575586210061
662,0.0429578029959011
661,0.0433150240742254
660,0.0434663204944598
659,0.0435888494303425
658,0.0441114590652744
657,0.0446410957959702
656,0.0448524368789685
655,0.0453827199445351
654,0.0456956102477818
653,0.0462015295350424
652,0.0466553495818806
651,0.0470608585659107
650,0.047648643211494
649,0.0480268323530689
648,0.0486422739407022
647,0.04906497452041
646,0.0497583150600794
645,0.0505956324063282
644,0.0511372597015079
643,0.0515808778355054
642,0.0523658505748477
641,0.052988148893619
640,0.0539038992648143
639,0.0547439698953867
638,0.0554533848025334
637,0.0561974279398336
636,0.0570527257699825
635,0.0577175240973294
634,0.0587100994634766
633,0.0593663420096449
632,0.0603830439001732
631,0.0611968291437789
630,0.0620767918692743
629,0.0634422962639245
628,0.0643382624193851
627,0.0652448947986334
626,0.0663449180534266
625,0.0676474232378339
624,0.0684243690931636
623,0.0697976071009006
622,0.0710012270427329
621,0.0725435038542725
620,0.073285412031925
619,0.0747648621886618
618,0.0763021949545584
617,0.077311185712918
616,0.0788040959831335
615,0.0801785651956166
614,0.081823589879338
613,0.0831347441014348
612,0.0848523594034621
611,0.0863201793231856
610,0.0880610854071075
609,0.0895383136220718
608,0.0915001196340168
607,0.093153869727876
606,0.0950416666971864
605,0.0967949263000734
604,0.0984685464104025
603,0.100428534075624
602,0.102266449822051
601,0.104494823535642
600,0.106450704541146
599,0.108590172057903
598,0.110593343410099
597,0.112618377952298
596,0.114565000709873
595,0.117063917805163
594,0.1191374028964
593,0.121404877247846
592,0.123688175699732
591,0.125917084834583
590,0.128331731886661
589,0.130693386727136
588,0.13284150422785
587,0.135304011978465
586,0.137640977994167
585,0.140059126454761
584,0.142463861826073
583,0.145014049593749
582,0.147496440300635
581,0.14972904138937
580,0.152292529128857
579,0.154891021452885
578,0.157012578461779
577,0.159298692141052
576,0.161865388140356
575,0.164063107791855
574,0.166387345961556
573,0.16878143372932
572,0.170941457604615
571,0.173280100687119
570,0.175249125395378
569,0.17741947798638
568,0.179639446378722
567,0.182125287557643
566,0.183864963248805
565,0.186085747783095
564,0.188198549673467
563,0.189890619536868
562,0.191950326527967
561,0.19356877184325
560,0.195405935685243
559,0.197360052796433
558,0.199239733290814
557,0.200868564180583
556,0.202223230816906
555,0.203797459735055
554,0.204776034898604
553,0.206681285294511
552,0.207350943305741
551,0.208306578555523
550,0.209861293512195
549,0.210742060208254
548,0.211578560770524
547,0.212057056497205
546,0.212799282398728
545,0.213365892325768
544,0.214204287598659
543,0.214422611232897
542,0.214439321815968
541,0.214817772341478
540,0.214768575069127
539,0.214578969386826
538,0.214704953729098
537,0.214595388986317
536,0.214391609290679
535,0.213990395344619
534,0.213403591068015
533,0.213003457518399
532,0.212191172022765
531,0.211522861875246
530,0.210463626375119
529,0.209723196417861
528,0.208916682378137
527,0.207679499408777
526,0.206778953260001
525,0.205493570454232
524,0.204129136030783
523,0.202852138686551
522,0.20139540290697
521,0.199904035482726
520,0.198492052296745
519,0.197080039940831
518,0.195713997032913
517,0.193932128343789
516,0.192367352965622
515,0.190647836873853
514,0.188951620090735
513,0.187183881939213
512,0.185376975160994
511,0.183613544692623
510,0.181753772922512
509,0.179838556973875
508,0.178115644909502
507,0.176087751521138
506,0.174328692704144
505,0.172214753503567
504,0.170326456885333
503,0.16838518255485
502,0.166839245749984
501,0.164768701662977
500,0.162705158499274
499,0.160881105231499
498,0.159303623192165
497,0.157597426295227
496,0.1558254504995
495,0.154190206069701
494,0.152409142520971
493,0.150835262797249
492,0.149510245898465
491,0.148067366451145
490,0.146711742173373
489,0.145283106591005
488,0.144027187761317
487,0.143033999265723
486,0.141916292812015
485,0.140712004067761
484,0.139899766675979
483,0.139042728635681
482,0.138195029121413
481,0.137090862741545
480,0.136307683742473
479,0.135786890551256
478,0.134979777119454
477,0.134398238161624
476,0.133764568377807
475,0.133259725802139
474,0.132819958775264
473,0.132347071644355
472,0.131826199386901
471,0.131410791691877
470,0.13112834379378
469,0.130956723421626
468,0.130533195770133
467,0.130366633269561
466,0.130065165578251
465,0.129768409160447
464,0.129686714552999
463,0.129566346831468
462,0.12934680528391
461,0.129139850824827
460,0.129063919053704
459,0.129174249254576
458,0.12890972676827
457,0.128840765561719
456,0.128848009456573
455,0.128922336011355
454,0.128760568396053
453,0.128730067412833
452,0.128769343048262
451,0.128820775824803
450,0.128864761426209
449,0.128803677320027
448,0.129153059220806
447,0.128924983302258
446,0.129009809651593
445,0.129061723885587
444,0.129330174172069
443,0.129290359716079
442,0.129408907370264
441,0.129478865667462
440,0.129555183979667
439,0.129884678603099
438,0.129907021538989
437,0.129883875675236
436,0.13020796020429
435,0.130172781142206
434,0.130360517289804
433,0.13066855518253
432,0.130790033422645
431,0.130940800433402
430,0.130987941171884
429,0.131389492254263
428,0.131439134175205
427,0.131590687488617
426,0.131921695567747
425,0.132018686188969
424,0.132134998260072
423,0.132479907171751
422,0.13263312404312
421,0.132828710388109
420,0.133039470144931
419,0.133367045054632
418,0.133562046900524
417,0.13361986030192
416,0.134053776794383
415,0.134217070102346
414,0.134356968787705
413,0.134928245508623
412,0.135084907850328
411,0.135365699127886
410,0.135549822852153
409,0.135803593827211
408,0.136220676189004
407,0.136539670977396
406,0.136622345932787
405,0.136878411972981
404,0.137225796498584
403,0.13753984573196
402,0.137719313048769
401,0.138306885241841
400,0.13852438068832
