Sample 1,,nr-poly-1day,,exp1,,exp2,
Wavelength (nm),Abs,Wavelength (nm),Abs,Wavelength (nm),Abs,Wavelength (nm),Abs
1100,0.0237091650856023,1100,0.0115545518190512,1100,0.0438030290061268,1100,0.0179247992554803
1099,0.0207062741639723,1099,0.00885282239607529,1099,0.0386270774411991,1099,0.0148793361921987
1098,0.0187425587745898,1098,0.00674655396295307,1098,0.0410746139281206,1098,0.0112635820094107
1097,0.0208316712126463,1097,0.0111564540939475,1097,0.04206125681293,1097,0.0118702176027329
1096,0.0216837163498412,1096,0.011942611068904,1096,0.0402922726783065,1096,0.0136086763503666
1095,0.0231461398213582,1095,0.0118535908921601,1095,0.0427196473722783,1095,0.0126574556508273
1094,0.0230331746520125,1094,0.0112693468939515,1094,0.041434446410114,1094,0.0163412963587168
1093,0.0199164375665742,1093,0.0117909205657267,1093,0.0412444304621466,1093,0.0131770444261068
1092,0.0224491347911372,1092,0.0109403661652854,1092,0.0441224047947467,1092,0.0129771782554907
1091,0.0227804334829735,1091,0.0135705896303159,1091,0.0433967730909655,1091,0.0166634207285873
1090,0.022787008020047,1090,0.00985875589694316,1090,0.0415523299662757,1090,0.0146538112129445
1089,0.0242120184614704,1089,0.0129820057588231,1089,0.0465708525445685,1089,0.0164118044983495
1088,0.0213767733532686,1088,0.0119039518289962,1088,0.0468835333623213,1088,0.0160135555960042
1087,0.0219886435420186,1087,0.0106413979384022,1087,0.0462980497352476,1087,0.0136231800959551
1086,0.0241859902733715,1086,0.0119216713287132,1086,0.0489695180755558,1086,0.016172693116521
1085,0.0238856978676861,1085,0.0127123878933312,1085,0.0474356486171044,1085,0.0151198269820128
1084,0.0229589361202274,1084,0.0117605728640369,1084,0.0480344075918457,1084,0.0166413107359178
1083,0.0240172417516196,1083,0.0125343697555565,1083,0.0474817332352287,1083,0.0170739780285982
1082,0.0238550401093255,1082,0.0137982515328393,1082,0.0484094024641971,1082,0.0172102614006041
1081,0.0228692390606704,1081,0.0107675838154672,1081,0.0486608337709054,1081,0.015753269579526
1080,0.0235871981362067,1080,0.0140057677048769,1080,0.0496391989443249,1080,0.0185796671444905
1079,0.024410086316965,1079,0.0132740494834236,1079,0.0504398261647044,1079,0.0165947005340877
1078,0.0242719631241463,1078,0.0130284432138774,1078,0.0496574531688009,1078,0.0175596609710146
1077,0.0228324323336173,1077,0.0132048494377445,1077,0.0512315336095108,1077,0.0162163828599636
1076,0.0236831670162292,1076,0.0132550203732705,1076,0.0513334901217538,1076,0.0168480373738029
1075,0.0234301566894635,1075,0.0123000194293761,1075,0.05039191491566,1075,0.017986931095901
1074,0.0252107240445037,1074,0.0129583488382127,1074,0.0532492395486605,1074,0.0186035782308886
1073,0.0255678030722097,1073,0.0138550921227831,1073,0.0524818027092786,1073,0.0183822416075304
1072,0.0273149681651344,1072,0.0158879844995574,1072,0.0555757834767964,1072,0.0199889922582607
1071,0.0241579111382491,1071,0.0132980172068931,1071,0.0552391157591091,1071,0.0179410665249309
1070,0.0246647642850773,1070,0.0135014491352766,1070,0.0553825381758585,1070,0.0193045009868618
1069,0.026830401499696,1069,0.0143749927850833,1069,0.0558226860437231,1069,0.0205713593561387
1068,0.0261036015937676,1068,0.013116183814219,1068,0.0564348090044143,1068,0.0190940052710004
1067,0.026603512219421,1067,0.0138827802197266,1067,0.0557450981945589,1067,0.0198300219637936
1066,0.0237834226113165,1066,0.0122467102676889,1066,0.0561192723554183,1066,0.0176888979278053
1065,0.0247458718651298,1065,0.0122971168140675,1065,0.0564126125758085,1065,0.017832872308587
1064,0.0266186491627691,1064,0.0149288704237087,1064,0.0594929953724603,1064,0.0197042636537074
1063,0.0276745823132249,1063,0.0143326650799334,1063,0.0579400302244834,1063,0.0204511928864858
1062,0.024460254116765,1062,0.0140624482977125,1062,0.0578295022329532,1062,0.0210956718497484
1061,0.0262257824477266,1061,0.0153576619642297,1061,0.0612057403580906,1061,0.0218737739315837
1060,0.0272099254811839,1060,0.0163222936450638,1060,0.0615261886992916,1060,0.0215260015052743
1059,0.0260111914767502,1059,0.0142309830733279,1059,0.0601036282341764,1059,0.0214821551467211
1058,0.0273857091994817,1058,0.0145999981914866,1058,0.0611224172118062,1058,0.0222112541513374
1057,0.0265560131644368,1057,0.0148421289575184,1057,0.0612025513741006,1057,0.0211601343287207
1056,0.0286449290614122,1056,0.0156634112782262,1056,0.0648560461739105,1056,0.0232792897154635
1055,0.0274053400869539,1055,0.0150378441857172,1055,0.0648680684435429,1055,0.0214840046555464
1054,0.0284330089395745,1054,0.0149596546828684,1054,0.0642179311309192,1054,0.0221089093726555
1053,0.027774107935547,1053,0.0162981584408401,1053,0.0647167623901423,1053,0.0225340828525788
1052,0.0295028433146119,1052,0.0153428856442206,1052,0.0662574371375868,1052,0.0225216503910323
1051,0.0287541638710844,1051,0.0159400775963811,1051,0.0658250559975209,1051,0.0225634205103598
1050,0.0290069749676378,1050,0.0149723280363264,1050,0.0672513714849092,1050,0.0225576673376119
1049,0.0287905908007786,1049,0.0159294705056186,1049,0.0677150048889139,1049,0.0229529866695239
1048,0.0287029721887848,1048,0.0159895181131492,1048,0.068198789908883,1048,0.023317800474007
1047,0.0296350190465107,1047,0.0179293583458286,1047,0.069293152026285,1047,0.023185812909384
1046,0.029981721144736,1046,0.01694713101407,1046,0.069576995417606,1046,0.0230006664389659
1045,0.0289934426094919,1045,0.0170172530205482,1045,0.0707606869524627,1045,0.0226850456930891
1044,0.0297143992371436,1044,0.0165320414983777,1044,0.0719378987080416,1044,0.0244764393977349
1043,0.0303774465787519,1043,0.0161568680883891,1043,0.0712200016588855,1043,0.0236682960548212
1042,0.0304007390446839,1042,0.0173954609713585,1042,0.0729208977752101,1042,0.0246737511355711
1041,0.0306198159736486,1041,0.0169156672754506,1041,0.0734765826539511,1041,0.0250633234961579
1040,0.0307957629021842,1040,0.0175133833279089,1040,0.0736538209036531,1040,0.0245186444649099
1039,0.0313372474378682,1039,0.0169281556037554,1039,0.0754591422879225,1039,0.0249547662142353
1038,0.0312934008348403,1038,0.0170176837473203,1038,0.0761305354324835,1038,0.0240837537308468
1037,0.0317557934766865,1037,0.0181570770034105,1037,0.0766312032286488,1037,0.0253775768704383
1036,0.0324504741962815,1036,0.018257279734881,1036,0.0775394449579973,1036,0.0261597114397111
1035,0.0320882787962673,1035,0.0182675928582882,1035,0.0784570947743821,1035,0.0270100534839245
1034,0.0328077792799676,1034,0.0172908774851511,1034,0.0787626336021278,1034,0.0260632212862097
1033,0.0323164908269741,1033,0.0185722374139791,1033,0.0800519593237048,1033,0.0264519241912617
1032,0.0324819400646867,1032,0.0181215580940373,1032,0.0809498616267949,1032,0.0267683406527979
1031,0.0340323062082661,1031,0.019148242802589,1031,0.0822406077329671,1031,0.028341345307185
1030,0.0330727386872804,1030,0.0190824282611948,1030,0.0834976458181664,1030,0.0285048168806481
1029,0.0325114832342446,1029,0.0190414784179426,1029,0.0832598375601113,1029,0.0273474976851749
1028,0.0331196987152918,1028,0.0198080482074454,1028,0.0847114216429143,1028,0.028410678482129
1027,0.0328924883911636,1027,0.0193856962639217,1027,0.0844387697564565,1027,0.0278928400751574
1026,0.0338465081943388,1026,0.0204907833599228,1026,0.0868903784520305,1026,0.0286700091560809
1025,0.0332816254339342,1025,0.0194471711854366,1025,0.0879158698374869,1025,0.0291550005572451
1024,0.0338648661341601,1024,0.0194415674305559,1024,0.0884716350801621,1024,0.0304879233665556
1023,0.0334183111842172,1023,0.0200362392778768,1023,0.0893180654169078,1023,0.0290807046690573
1022,0.0336821049035253,1022,0.0195626462884448,1022,0.0898191847382138,1022,0.0298419811820308
1021,0.0345409842191689,1021,0.0208702099739177,1021,0.0910347571331092,1021,0.030803376931561
1020,0.0341116822562486,1020,0.0204859259383084,1020,0.0927966586998829,1020,0.0307409680586482
1019,0.0342464167577995,1019,0.020507499818215,1019,0.0940766018869475,1019,0.0318276515954709
1018,0.0338542038825707,1018,0.0206885183919609,1018,0.094139164536666,1018,0.0319424821516742
1017,0.0349828596489827,1017,0.0211804099193887,1017,0.0958255746505136,1017,0.0318699643206264
1016,0.0342822428376484,1016,0.0212122113448858,1016,0.0964055879229068,1016,0.031956078851754
1015,0.0348184464092254,1015,0.0218048504148865,1015,0.0973739042509764,1015,0.0331509616563622
1014,0.034468647761843,1014,0.021827850925364,1014,0.0985338236314271,1014,0.0332914910833641
1013,0.034780220343302,1013,0.0221179252049856,1013,0.0996382673804108,1013,0.0334408447040176
1012,0.0352884279314462,1012,0.0224762858307911,1012,0.100652239031826,1012,0.0338997931378624
1011,0.0349032681261026,1011,0.0221319259923529,1011,0.101338363698354,1011,0.0345336687489073
1010,0.0349480979335178,1010,0.0220683268255225,1010,0.103119414452923,1010,0.0347951121229936
1009,0.0346874877375447,1009,0.0220379332537714,1009,0.103975899359915,1009,0.0351376517967856
1008,0.0357802246680614,1008,0.0234568226801228,1008,0.105857458943347,1008,0.0363476370437558
1007,0.0351747865445713,1007,0.0227096202977131,1007,0.106027701108904,1007,0.0362486880360374
1006,0.0353570538795313,1006,0.0230852583727918,1006,0.108175906275351,1006,0.0369073370411602
1005,0.0355109120004111,1005,0.0234940375884009,1005,0.108469529401924,1005,0.0372925020377589
1004,0.035621410026923,1004,0.024150987420012,1004,0.110135297062108,1004,0.0382710608753885
1003,0.0362531340662887,1003,0.0242252931643645,1003,0.111342396923674,1003,0.0382876277801527
1002,0.0361706085311905,1002,0.0246137783886301,1002,0.113137191351108,1002,0.0393224733629961
1001,0.0360621083629635,1001,0.0238787784878011,1001,0.113514866232669,1001,0.0392418559513828
1000,0.0362950359162987,1000,0.0249734649784607,1000,0.115369928383845,1000,0.0397386348016513
999,0.0361431785238062,999,0.025762946976552,999,0.116156732502376,999,0.0406445213805014
998,0.0370036174118571,998,0.0253601504974893,998,0.117765692462459,998,0.0419488516942867
997,0.0366782214943553,997,0.0257432528524218,997,0.119196393005674,997,0.0423677670033593
996,0.0364435681832567,996,0.0259136626856843,996,0.119610400619202,996,0.041853948766691
995,0.0372350481767851,995,0.0262584779791083,995,0.122418351146715,995,0.0431414228158942
994,0.0373361686708378,994,0.0265417864747666,994,0.124192619475283,994,0.0441152699816664
993,0.0376284080504789,993,0.0268839615778789,993,0.12529103217213,993,0.0448775808304699
992,0.0376585857143818,992,0.026909986725281,992,0.125917084834583,992,0.0446798554810595
991,0.0376668291827206,991,0.0268508334083386,991,0.127108421380046,991,0.0458697178563726
990,0.0382488124600037,990,0.0273853507786051,990,0.129004583730221,990,0.0465513732948935
989,0.0381906383817358,989,0.0281924642302538,989,0.130624071796286,989,0.0472556305234413
988,0.0380694532786912,988,0.027578361867841,988,0.132269839952017,988,0.048371784233897
987,0.0384583941920248,987,0.0282323800161476,987,0.134279167283992,987,0.0495155025337962
986,0.0388175648716935,986,0.0284377902387374,986,0.135827800562122,986,0.0495687721084781
985,0.0388446547754997,985,0.0290540786107341,985,0.136882740148079,985,0.0514129162640393
984,0.0388041762328517,984,0.0286402284330627,984,0.138408125096174,984,0.0510726748115371
983,0.0394431015555901,983,0.029300002722992,983,0.139540064427603,983,0.0520368261087285
982,0.039465836466286,982,0.0300161708060893,982,0.14142017341614,982,0.053109679133766
981,0.0395689805964224,981,0.0300471833859702,981,0.143216471843382,981,0.0536068592832741
980,0.040079050597642,980,0.0300947606552139,980,0.144642828707971,980,0.0546708314806105
979,0.0399974695198556,979,0.0305880403291603,979,0.145865000013266,979,0.0553236698626063
978,0.0399177767097018,978,0.0304172582967364,978,0.147057678716493,978,0.055800285396954
977,0.0402645243146506,977,0.0311738745542498,977,0.148923888810108,977,0.0571735091033063
976,0.0402311263837105,976,0.030944232760733,976,0.15032058556245,976,0.0578096888417926
975,0.0403990508306626,975,0.0317156082477217,975,0.152312673215233,975,0.0589533353441076
974,0.0405901751218663,974,0.0323938804244664,974,0.154234105453633,974,0.0603831033947643
973,0.0407719149703627,973,0.0315902586807534,973,0.155764270939535,973,0.0603658800509628
972,0.0414682502847603,972,0.0333014408038235,972,0.157938591618717,972,0.0621826710044337
971,0.0411813284820137,971,0.032605900943829,971,0.15921771137246,971,0.0626454072810741
970,0.0420082727949327,970,0.0336692932379874,970,0.161679343392646,970,0.0638347380597017
969,0.0413530943743024,969,0.033061146124555,969,0.162648084246056,969,0.0649723756011956
968,0.041050258228118,968,0.033522909028168,968,0.163305042253589,968,0.0654421583661623
967,0.0422053843722244,967,0.0342654358645445,967,0.165734015389485,967,0.0664092810016963
966,0.0420715520895903,966,0.034818053754615,966,0.16830859203618,966,0.0680200094034394
965,0.0425224164981254,965,0.0355439488911821,965,0.170155596926187,965,0.0688324117652932
964,0.0422038153405723,964,0.0347280330329124,964,0.171113087714317,964,0.0692148809430525
963,0.0429253974702871,963,0.0354564459475608,963,0.173678489881254,963,0.0710658265043385
962,0.0428455370311022,962,0.0361589611164174,962,0.175245056272495,962,0.0719276953370165
961,0.0425892827770055,961,0.0369458071698145,961,0.17701309119698,961,0.0730179389559248
960,0.0422176230136628,960,0.0357618418031015,960,0.177715387970136,960,0.0734239157457686
959,0.0435184812032976,959,0.0369407058065937,959,0.179556422500246,959,0.0750189837545516
958,0.0425682681829452,958,0.0370819314161568,958,0.180895232442954,958,0.075012153561822
957,0.0434643463504084,957,0.0373208792080656,957,0.182752979492831,957,0.0768640797981986
956,0.0443925823934238,956,0.0380748222385143,956,0.184710230132391,956,0.0774533618489943
955,0.0441219176752661,955,0.0382483601533419,955,0.186673755387631,955,0.0792027526426093
954,0.0443777019142851,954,0.0396650020684685,954,0.187945209078064,954,0.0799696090515558
953,0.0445442260555372,953,0.0397725055125682,953,0.189842683486688,953,0.0810304950579499
952,0.0447143146268666,952,0.0395626007132782,952,0.191227543423191,952,0.0825155763482178
951,0.0452776113373784,951,0.0401384151477295,951,0.193088604889366,951,0.0829983110450602
950,0.0452964589041178,950,0.0405969680322929,950,0.194892593254644,950,0.0842037767292023
949,0.0456982272417788,949,0.0416311267187535,949,0.196234249983504,949,0.0857604727703909
948,0.0454268340596355,948,0.041284453880463,948,0.197187963534151,948,0.0864037743290969
947,0.045920297794492,947,0.0420678446211225,947,0.199508602444743,947,0.0872871628557902
946,0.0457514332863296,946,0.0425087989662001,946,0.20106650621645,946,0.0894050699889973
945,0.0463322919179926,945,0.0429371992027523,945,0.203763896335153,945,0.0903529137237783
944,0.0464515702550237,944,0.0430352259850061,944,0.204896841932929,944,0.0914336863368945
943,0.0471450181890713,943,0.0436368746360398,943,0.206205676331659,943,0.0928455414193602
942,0.0473088256661598,942,0.0448824318288132,942,0.208645400704741,942,0.0944662380331865
941,0.0472267987658328,941,0.0437421308021075,941,0.209948933038645,941,0.0958652768852183
940,0.0477583147906667,940,0.0446789086821755,940,0.21174169598284,940,0.0971289275635189
939,0.0477036199959778,939,0.0452622121034359,939,0.212997243363129,939,0.0982456710487488
938,0.0485353604426854,938,0.0457130092402348,938,0.215157593670718,938,0.0999684349082531
937,0.0488456935885099,937,0.0466798487275613,937,0.216701472147749,937,0.10112806035629
936,0.0490520487098785,936,0.0472152839140445,936,0.219028829746744,936,0.102968059217257
935,0.0500819278146623,935,0.0481084321459458,935,0.220056467239129,935,0.105261064312808
934,0.049746790947955,934,0.0481435403883484,934,0.221604653144907,934,0.105234478666137
933,0.050906044733557,933,0.0487009094949045,933,0.223641882898382,933,0.107746144174896
932,0.0505221132766361,932,0.0495554250874214,932,0.225392965662729,932,0.109569680740107
931,0.0508731280095163,931,0.0495463145303455,931,0.226402088666694,931,0.110263510693871
930,0.0517028604560221,930,0.0502312124402668,930,0.227377336421927,930,0.111698626997528
929,0.0516219527647138,929,0.0514787466615175,929,0.229852853191539,929,0.113715817311487
928,0.0516931215791933,928,0.0518411527465156,928,0.231110202745433,928,0.115436749472677
927,0.052632791329069,927,0.0521208173551166,927,0.233523734413608,927,0.116875641169816
926,0.052099745057372,926,0.0525923219309647,926,0.233832169916104,926,0.118171677477516
925,0.0527117832632055,925,0.052926650880106,925,0.235581493602506,925,0.119865530913274
924,0.0522950386169586,924,0.0535330043638089,924,0.236834707055804,924,0.120374875423093
923,0.0530985045367561,923,0.0545889287279616,923,0.239056263923248,923,0.123687384146673
922,0.0532149158164462,922,0.0547313437575023,922,0.239935007599698,922,0.125108754408593
921,0.0526359180026763,921,0.0549902823622257,921,0.240604344883736,921,0.126332704547758
920,0.0536232601765312,920,0.0560234603690275,920,0.242406095075185,920,0.128227701420633
919,0.0537162883903874,919,0.056650435739315,919,0.244623672568163,919,0.130288599829243
918,0.0540216406160788,918,0.0573591043696227,918,0.24595847068127,918,0.1321699505978
917,0.0544074766853582,917,0.058068487436412,917,0.247337414323313,917,0.133730544085727
916,0.0544314487772926,916,0.0585446607277969,916,0.2478628177326,916,0.134922453441144
915,0.0543350109653,915,0.0587322654566753,915,0.24874434199329,915,0.136433549614089
914,0.0551657763492728,914,0.0597803359317715,914,0.25053674248825,914,0.13857862020599
913,0.0553145551029441,913,0.0603732274042425,913,0.252074700726318,913,0.140824474621718
912,0.0561190072454459,912,0.0613199333371484,912,0.253544791073717,912,0.142551230736515
911,0.0551958454790794,911,0.0619134391971299,911,0.253792179065306,911,0.144555543580361
910,0.0561500262104768,910,0.063087833095149,910,0.255862028261173,910,0.146302738972252
909,0.0562715311263934,909,0.0636570553223487,909,0.256476575918806,909,0.1485159682439
908,0.056339988366207,908,0.064362819020719,908,0.258154029447435,908,0.150493736370051
907,0.0565623499135415,907,0.0646811898323394,907,0.258473569510787,907,0.152297418027459
906,0.057034541797677,906,0.0653231155111965,906,0.259868359510193,906,0.154789193161275
905,0.0570368737905266,905,0.0661880620118673,905,0.260654492081623,905,0.155499752803577
904,0.0572330126327172,904,0.0666818887213827,904,0.261264619981781,904,0.157137826091876
903,0.0571134527656597,903,0.0674882818616839,903,0.262106628219656,903,0.158974747642653
902,0.0577904677589609,902,0.0685084989811161,902,0.263177738392156,902,0.161291618165799
901,0.0578868774491233,901,0.0687512517060149,901,0.264149475184677,901,0.162527334428589
900,0.05824292107829,900,0.0703813597182612,900,0.265820030313749,900,0.164795826418653
899,0.0578689838492924,899,0.0702155538228136,899,0.265809527591628,899,0.166715197173348
898,0.0588306036512537,898,0.0706762415315282,898,0.26692925752236,898,0.169780477224758
897,0.0589515563762079,897,0.0715857461401514,897,0.267498665664424,897,0.170741474363613
896,0.0596235757513212,896,0.0728432253360544,896,0.268398960715392,896,0.172803532902632
895,0.0596791986451478,895,0.0729791076325081,895,0.268922840291249,895,0.174111373538363
894,0.0598104291921756,894,0.0740774311293209,894,0.270271386755885,894,0.176583643272924
893,0.0605872773375339,893,0.0750799987552344,893,0.27064230494352,893,0.178668109910194
892,0.0607309588299282,892,0.0758592395181476,892,0.271689600189859,892,0.180217255980966
891,0.0610072930749797,891,0.0764450597492935,891,0.271743606587915,891,0.182211718140568
890,0.0613222884548545,890,0.0773344763958186,890,0.272372723983239,890,0.18409402228636
889,0.0618733195538105,889,0.0778656759072627,889,0.272621813688168,889,0.18627320828103
888,0.0620993991532866,888,0.0787317876620696,888,0.27291204906096,888,0.187710002485309
887,0.0623701209515932,887,0.0801791878876186,887,0.274198295383914,887,0.190274699714259
886,0.0626556640145653,886,0.0808171376051839,886,0.274981519927819,886,0.191946500603126
885,0.0632361771265337,885,0.0814357916402138,885,0.275098311054288,885,0.194141868998173
884,0.0636785460624319,884,0.08266316173592,884,0.275169522727064,884,0.195469592988676
883,0.0641751673763087,883,0.0835392176082052,883,0.275798203797428,883,0.197372531001936
882,0.064305572472686,882,0.0842401363822764,882,0.276125914038204,882,0.198633207805141
881,0.0645669807579129,881,0.085054610566846,881,0.276403972558045,881,0.200635253181695
880,0.0646409038238525,880,0.0853886807176186,880,0.275553730617182,880,0.20184652878837
879,0.0653019042719644,879,0.0869709523740359,879,0.277516960428878,879,0.204088754946474
878,0.0655185483443323,878,0.0879864903364121,878,0.277221671893101,878,0.205949973939988
877,0.0656567646761339,877,0.0880954231011101,877,0.276703404790759,877,0.206892482370504
876,0.0661582470772414,876,0.0893280815028568,876,0.277673388289818,876,0.209565263149395
875,0.0671984871078447,875,0.0904636850926311,875,0.277082848310452,875,0.211452974501755
874,0.0669010342776523,874,0.0906807194840451,874,0.277803812432515,874,0.212504790181546
873,0.0681254700983043,873,0.0920774849332971,873,0.277113421949929,873,0.214033784026975
872,0.0679574959885301,872,0.0930337832573715,872,0.277001525067378,872,0.214989305986704
871,0.0680897989294581,871,0.0936803453953827,871,0.27734774431219,871,0.216661525024943
870,0.0683702509135577,870,0.0949089143163303,870,0.277544867071801,870,0.219170175532097
869,0.0691413590512104,869,0.0956565741227267,869,0.277367991855428,869,0.219972305783713
868,0.068870510058123,868,0.0964534563322041,868,0.27758454761824,868,0.221546834363175
867,0.0705001836003134,867,0.0979582284974852,867,0.276741344018992,867,0.224448025844625
866,0.070184244066392,866,0.0987819015970548,866,0.275914677291948,866,0.225222274241845
865,0.0707483176573506,865,0.100988731252111,865,0.276990160622065,865,0.226864822613934
864,0.0707284544033075,864,0.100663597024319,864,0.274915067850048,864,0.227564351896063
863,0.0713371027868501,863,0.102069710974079,863,0.275615055742955,863,0.228213039573495
862,0.0710561313993976,862,0.10242955483438,862,0.274119359569864,862,0.228946187876108
861,0.0714826157200027,861,0.104032898378319,861,0.274672455411173,861,0.230662077324833
860,0.0724878605647985,860,0.105520244173764,860,0.275154791683444,860,0.232485478637832
859,0.074018153001228,859,0.106119606091473,859,0.273556129685219,859,0.233557462342253
858,0.072502481915135,858,0.107304179939679,858,0.272461522764923,858,0.234451120083143
857,0.0733284081251929,857,0.107673264877635,857,0.271920868320466,857,0.235040399012164
856,0.0728249190741465,856,0.109633816005647,856,0.270975469994121,856,0.235271991660646
855,0.0741035578239878,855,0.110267514851578,855,0.270737027428671,855,0.237050011903671
854,0.0734419100653562,854,0.110955610087948,854,0.269940544415654,854,0.238669061684653
853,0.0737172210722228,853,0.1114389132731,853,0.267733274489831,853,0.238166572682514
852,0.0751654587817409,852,0.113323383438527,852,0.267498665664424,852,0.239446013118986
851,0.0748675448312483,851,0.114000017799511,851,0.266108381486439,851,0.240486021748124
850,0.0757629483326474,850,0.11591259400319,850,0.26678842157642,850,0.241703763224823
849,0.075295973949726,849,0.11646761592661,849,0.26388390334061,849,0.24095337643416
848,0.0773268673500862,848,0.119608389092408,848,0.264071679001324,848,0.242554489829605
847,0.07746190132316,847,0.120195434172462,847,0.263518140363195,847,0.242065928625012
846,0.0780572627079171,846,0.12102414648506,846,0.261636999951694,846,0.243489410868307
845,0.0783455610563396,845,0.122479333009284,845,0.259900664755495,845,0.243117765369978
844,0.0774821987182197,844,0.124540206578244,844,0.26076636021571,844,0.243461613709893
843,0.0782291587151596,843,0.12613642184306,843,0.257513265148296,843,0.243932047056419
842,0.0787805711823406,842,0.127937480016874,842,0.257632431699166,842,0.244324472054916
841,0.0785251701540202,841,0.12884163621577,841,0.256244045585991,841,0.243657501412717
840,0.0805004603203665,840,0.131244732802001,840,0.255375004923859,840,0.244560979285976
839,0.0802856813518726,839,0.131879082668597,839,0.253732512657986,839,0.24419968051337
838,0.0804403613469705,838,0.133174030191727,838,0.250926834046481,838,0.244155805295656
837,0.0815096758935736,837,0.135193739310061,837,0.249384837872638,837,0.244822814447012
836,0.0812522283860222,836,0.136185254653746,836,0.247711819911959,836,0.243180477221963
835,0.0821641906807163,835,0.138402500040634,835,0.246963559790749,835,0.243817896672792
834,0.0822952308618857,834,0.139497446973934,834,0.245366405661896,834,0.243432684788376
833,0.0826434035504782,833,0.140662793937763,833,0.243815083006454,833,0.242915418283401
832,0.0831935868367961,832,0.142490239562594,832,0.241908438118848,832,0.241643431676555
831,0.0843363140111978,831,0.14554060421749,831,0.239866106883312,831,0.242794788724999
830,0.0842564473626466,830,0.146530987514329,830,0.237244860973739,830,0.240383804264685
829,0.0846826355622555,829,0.149641239608256,829,0.235388012351518,829,0.241031828839889
828,0.0850610652676233,828,0.150911800669822,828,0.234878811073472,828,0.239463445265609
827,0.0863395686468549,827,0.153152019202489,827,0.233129431683098,827,0.239525002515051
826,0.0871971958113169,826,0.15528362024829,826,0.231167237215591,826,0.238256351440674
825,0.0875850446624214,825,0.157691019997526,825,0.229432539391512,825,0.238119853854791
824,0.0878126222909423,824,0.159794916912074,824,0.227100130049905,824,0.237197526062315
823,0.0882483745424305,823,0.161670103344251,823,0.22543611663926,823,0.236234382947533
822,0.0886023704827102,822,0.163502270792313,822,0.224084120111725,822,0.235401053822182
821,0.0898794496251569,821,0.166560338207008,821,0.221214127173545,821,0.234379176083625
820,0.0900008006610222,820,0.16812941231375,820,0.218907027186809,820,0.231961384711677
819,0.0915588284126331,819,0.171086179674172,819,0.217114972264541,819,0.231534482289201
818,0.0923970205135436,818,0.175004077181844,818,0.215546493308286,818,0.231228026399492
817,0.0926656480942652,817,0.176319736929548,817,0.212003995478677,817,0.228208048662663
816,0.0941832467178858,816,0.18043679003695,816,0.210866010794518,816,0.227962295371778
815,0.0941869445513755,815,0.181804719314131,815,0.209176861659702,815,0.226880403969732
814,0.0945708544714418,814,0.184483537823716,814,0.205788458944154,814,0.224907247550874
813,0.0952412420684906,813,0.188541535291292,813,0.203505573952068,813,0.223501239852436
812,0.0964826453994092,812,0.191162937024677,812,0.201698970793667,812,0.221496437841554
811,0.0975375472790223,811,0.194441298211078,811,0.198145042455137,811,0.220937725895183
810,0.0978518850126918,810,0.198350452200339,810,0.196867490966689,810,0.218656586418663
809,0.0995231130792293,809,0.200727707758095,809,0.19489944572459,809,0.21790963525889
808,0.0992523261795159,808,0.204290242153257,808,0.191727834542426,808,0.215020520507181
807,0.100153661406464,807,0.206698117285181,807,0.18935676802188,807,0.212635707275451
806,0.100673976139271,806,0.211495015106176,806,0.187781755715562,806,0.212271306723404
805,0.102293771701872,805,0.214959367636167,805,0.185080359094084,805,0.209804723364098
804,0.10209390959766,804,0.218358139669564,804,0.182352327636862,804,0.207970862006053
803,0.104242573095245,803,0.223282893749119,803,0.180421180986908,803,0.206180041056334
802,0.104179064494713,802,0.226544633898734,802,0.17779548781572,802,0.203579736964113
801,0.105193547868316,801,0.231185574463304,801,0.176058281584117,801,0.202744037080977
800,0.107107001260783,800,0.23511098476215,800,0.174036510408937,800,0.201253264618907
799,0.107656979005173,799,0.238669151378679,799,0.171184799449377,799,0.197951081352992
798,0.108700408255915,798,0.243085053676928,798,0.168428976430687,798,0.196435298988011
797,0.109747983553331,797,0.247202469455733,797,0.166470738230932,797,0.194328304722095
796,0.111343668056823,796,0.252634027236721,796,0.165052176584573,796,0.192559360008646
795,0.111942316744187,795,0.255962354623511,795,0.162083468504464,795,0.190058758175846
794,0.112819955060194,794,0.26074352186604,794,0.159901180309419,794,0.187392300898342
793,0.113025655441567,793,0.264211208478447,793,0.157854252503019,793,0.185465364680093
792,0.114537300224221,792,0.269816748258257,792,0.154560406943142,792,0.183019760174122
791,0.115788210542811,791,0.274719622145837,791,0.152621347450904,791,0.181287507614056
790,0.116496793816832,790,0.280356078810426,790,0.150350189421269,790,0.178949980387485
789,0.116821640223208,789,0.284064877223347,789,0.14787542183662,789,0.176303964365502
788,0.11875950457914,788,0.289358259054952,788,0.146090953023235,788,0.174083892594239
787,0.119747581452669,787,0.294501582656298,787,0.143656953235205,787,0.171709945708399
786,0.120693408276268,786,0.300073527707441,786,0.141612907898184,786,0.170272701538868
785,0.121447604527326,785,0.304298798978489,785,0.138879535708155,785,0.16705132012896
784,0.122075303330843,784,0.30950207510737,784,0.13584694748793,784,0.165090221942675
783,0.123130351022681,783,0.313975569767477,783,0.134608808283646,783,0.162754746904646
782,0.12395473578801,782,0.320077343142097,782,0.132372982443285,782,0.160300058908276
781,0.125611740741606,781,0.325928643002151,781,0.130170685160928,781,0.15782941933739
780,0.125564972550957,780,0.331586318219117,780,0.127457830205499,780,0.155631639832154
779,0.127121498759506,779,0.336341138594445,779,0.125955691740577,779,0.153015470403756
778,0.128366379458933,778,0.341381520015323,778,0.123445718196734,778,0.150270896600255
777,0.129965956546927,777,0.347687218661143,777,0.122097110924088,777,0.148813640656171
776,0.130525224482644,776,0.352706410038029,776,0.119198130133804,776,0.146109978002155
775,0.130896429120064,775,0.35758405988253,775,0.117647191819982,775,0.143988996107307
774,0.132548465215122,774,0.36304530286825,774,0.115535058301836,774,0.141723746546484
773,0.132890046921218,773,0.369097630283573,773,0.113657802307789,773,0.139880225903057
772,0.134419156529967,772,0.375249407933838,772,0.112534009788347,772,0.13785376666209
771,0.134923654229274,771,0.378785930566316,771,0.109996850166977,771,0.134936863117836
770,0.136439290988247,770,0.384461699529755,770,0.108420849776319,770,0.133099675864082
769,0.137411421094372,769,0.390757891685504,769,0.106580713318197,769,0.130810393883954
768,0.138568505428853,768,0.395068569265267,768,0.104887167664124,768,0.128974518484192
767,0.138725809743643,767,0.400095853357031,767,0.102455313857903,767,0.126824735722909
766,0.140137863190656,766,0.404810484325919,766,0.101028255014404,766,0.124849421944894
765,0.141072607041972,765,0.409188999489612,765,0.099531641980443,765,0.12264011634107
764,0.141364717590665,764,0.413388511800961,764,0.0978827897213122,764,0.120841257094579
763,0.142570676394097,763,0.418000171593875,763,0.0963649313922748,763,0.119168872373314
762,0.143524545759315,762,0.42284537234761,762,0.094743038933106,762,0.116667330741
761,0.144310141402669,761,0.426733144216856,761,0.0922402003854559,761,0.114711418025128
760,0.144756827759202,760,0.430242828770045,760,0.0911775707030693,760,0.112812570861755
759,0.146385806976581,759,0.43516935982567,759,0.0892894175066375,759,0.110736122715725
758,0.146489238151508,758,0.437840084948333,758,0.0884907398624979,758,0.109128986194019
757,0.147687999228597,757,0.443239972854078,757,0.0871124039812828,757,0.107396057141294
756,0.147993948718068,756,0.445316932475152,756,0.0853286261610237,756,0.105414870798752
755,0.149020885103558,755,0.447976119769264,755,0.0830492059372234,755,0.103425206594079
754,0.150148564505273,754,0.451489213480789,754,0.0831096043512468,754,0.101643590861494
753,0.150392677595413,753,0.453775588121768,753,0.0807940335502303,753,0.0998633247579305
752,0.150604924528307,752,0.456267981937809,752,0.0792617795842997,752,0.0980209635810432
751,0.151834870600673,751,0.458111697431445,751,0.0784285031957155,751,0.0964509674327501
750,0.153514737434647,750,0.461461684795265,750,0.0777157488866358,750,0.0960500207030679
749,0.153014697191385,749,0.462788000111478,749,0.0755820439914795,749,0.0929985077518737
748,0.154128961105571,748,0.464855530257135,748,0.0750401826493889,748,0.0919826810452037
747,0.154704539301736,747,0.465295966639328,747,0.0730235434478308,747,0.0892606761083798
746,0.155796545696348,746,0.46595008041418,746,0.072389255776336,746,0.0887948157738289
745,0.156159625914911,745,0.466896464493288,745,0.0711427547725724,745,0.0871609357863604
744,0.156614701672901,744,0.467192042331908,744,0.0697673609593676,744,0.0864071222541626
743,0.157674569862025,743,0.468203976872755,743,0.0688453029313491,743,0.0844655587362285
742,0.158589092770872,742,0.468116380013429,742,0.0679179037680697,742,0.0832520926330211
741,0.15880538447407,741,0.467365704168016,741,0.0665220145456066,741,0.0815693295797282
740,0.160189991999357,740,0.466997851087693,740,0.0655293246866482,740,0.0806666871025067
739,0.161010398949112,739,0.466644105949843,739,0.065252234912659,739,0.0795491689801105
738,0.162023468570753,738,0.464775927753394,738,0.0643364012177016,738,0.0783978980276623
737,0.162894204637713,737,0.46413624075533,737,0.0632191396865051,737,0.0772058828776092
736,0.163455651911057,736,0.462047745412321,736,0.062563063162365,736,0.0762749174123481
735,0.164205177631268,735,0.460223318647427,735,0.0608696846962924,735,0.0743989817065515
734,0.165295497234492,734,0.457967331420883,734,0.0602571715964892,734,0.0736632367924262
733,0.166615345569126,733,0.455551716755577,733,0.0594631022050284,733,0.0731668347468956
732,0.167675369004018,732,0.45244290477243,732,0.0586746599317657,732,0.0721983491035115
731,0.167781749965075,731,0.449372834737426,731,0.0582047965800083,731,0.0706709109321993
730,0.16893196881511,730,0.446205510078039,730,0.0567854744109027,730,0.0696597686470897
729,0.170297911699653,729,0.443384769861829,729,0.0564980146116101,729,0.0694381334869133
728,0.171102646736175,728,0.439974259367768,728,0.055713136973854,728,0.068419308484842
727,0.172039033049314,727,0.436470155251211,727,0.0549118736959532,727,0.0675129265101795
726,0.173558185844313,726,0.432243527269274,726,0.0543227193968647,726,0.0670052570255115
725,0.174257774622404,725,0.428150765964938,725,0.0537093750291534,725,0.0662817708042199
724,0.175327027384798,724,0.42448369384633,724,0.052853876322331,724,0.0657309036033564
723,0.176616569952108,723,0.420470131365288,723,0.0524001948820155,723,0.0647963905840175
722,0.177977843139793,722,0.41565973882709,722,0.0518437195316988,722,0.0641738770267039
721,0.178732602801082,721,0.410809408886248,721,0.0515110389682085,721,0.0636521698491812
720,0.180322794135301,720,0.406593809116953,720,0.0506186096869146,720,0.0630114803721403
719,0.181535813461414,719,0.401475851663711,719,0.0499195105116089,719,0.0624827074853543
718,0.183007095824959,718,0.39607784836812,718,0.0497640046589216,718,0.0620806442823099
717,0.184084727880077,717,0.391601355289713,717,0.0492155914668418,717,0.0616383776356933
716,0.185575400647611,716,0.386891462699134,716,0.0485540604442886,716,0.0608164103900105
715,0.186409174716193,715,0.381122420026319,715,0.0477202617400796,715,0.0605801346876411
714,0.187598626985854,714,0.376131565565183,714,0.0473351514458284,714,0.0601776576640742
713,0.189383631184124,713,0.370267554945737,713,0.046998867273118,713,0.0599129936557199
712,0.190715699847825,712,0.36506969726005,712,0.04663367619573,712,0.0593446184507043
711,0.191840314434358,711,0.360104495870652,711,0.0461261020683156,711,0.0591876001193383
710,0.193414300959151,710,0.354395599097328,710,0.0454151081768232,710,0.0590717123825254
709,0.19485419709494,709,0.348256823289475,709,0.0450215263980944,709,0.0585331676841729
708,0.196042359828316,708,0.34361510970425,708,0.0449713955426631,708,0.0583487577806823
707,0.19736070524274,707,0.337913519571201,707,0.0446011347684333,707,0.0580950297402842
706,0.198749945189806,706,0.332547962305245,706,0.0442924715370624,706,0.0581263973188232
705,0.200501126311993,705,0.326897003968141,705,0.0437568749998662,705,0.0578224343673193
704,0.201568303130966,704,0.320803283713593,704,0.0434517005970194,704,0.0577915322889882
703,0.202741972759054,703,0.315520326961617,703,0.0431809924207094,703,0.0574818936493442
702,0.204124538610246,702,0.309877956981603,702,0.0430162190634139,702,0.0575582260429093
701,0.205590514512401,701,0.304202568760667,701,0.0425966781002231,701,0.0571893660708995
700,0.207182483055909,700,0.299294603467359,700,0.0425574472057192,700,0.0576892901764068
699,0.208116177734699,699,0.294353454346127,699,0.0424146298608432,699,0.0576526922860971
698,0.209520766960608,698,0.289308870757431,698,0.0419502202270172,698,0.0573940821874016
697,0.210850614939468,697,0.283671924827311,697,0.0416364544193731,697,0.0570228820212537
696,0.21207359193914,696,0.278498988737572,696,0.0414576560325326,696,0.0575233532113428
695,0.213572408173079,695,0.273841981391651,695,0.0412381967055072,695,0.0575946386315957
694,0.215356377757403,694,0.268578369491499,694,0.041361835356902,694,0.0578569171767037
693,0.216633602590556,693,0.263740345385644,693,0.0412296574580876,693,0.0582616885589948
692,0.217485426188121,692,0.258306403370832,692,0.0407582100500052,692,0.0580660315415686
691,0.218860792303103,691,0.253682649902131,691,0.0408299524244962,691,0.0581886657152986
690,0.220121479057915,690,0.248855846397924,690,0.0406214120199964,690,0.0582406418022668
689,0.221313826390148,689,0.243934044387856,689,0.0405075602346787,689,0.0587114625801438
688,0.222700179342424,688,0.239552324148338,688,0.0403028669429405,688,0.0587544918531671
687,0.223840602040872,687,0.234960931497172,687,0.0404844297456288,687,0.0589584054426008
686,0.225192535134967,686,0.230730061491795,686,0.0402364937351124,686,0.0592711165975245
685,0.226708603506279,685,0.226273014190113,685,0.0404924144558113,685,0.0600024453621246
684,0.228005439847677,684,0.221699482262981,684,0.0402976123826021,684,0.0601133494516054
683,0.228858970749008,683,0.217289635838138,683,0.0401802960270169,683,0.0604245433573852
682,0.230733408137535,682,0.213586546250624,682,0.0400904061727741,682,0.0609473297783368
681,0.231798554384784,681,0.209222956998319,681,0.0402867626267441,681,0.0613726135156713
680,0.233413571809992,680,0.205910587686195,680,0.0402748622900009,680,0.0617810644054524
679,0.234321274261398,679,0.201539605162931,679,0.0400702786191251,679,0.0619898081047667
678,0.236078101049406,678,0.198090958256329,678,0.0403389405059444,678,0.0625609404812021
677,0.237324747543145,677,0.193734337354086,677,0.0400983268622077,677,0.0630306346351649
676,0.238483658885696,676,0.190224876034573,676,0.0402408103833082,676,0.0634009268179005
675,0.240092593860609,675,0.186837031000639,675,0.0404362972716575,675,0.0642521151531682
674,0.240862993387526,674,0.183293929302753,674,0.0404053577836556,674,0.0648710440066553
673,0.242231072543631,673,0.179912977679434,673,0.0404533731763656,673,0.0652658024172088
672,0.243946437126853,672,0.176574391597462,672,0.0406353684485835,672,0.0660717380748245
671,0.245080074086935,671,0.173102444793825,671,0.0407635839195148,671,0.0667086306913596
670,0.246772161107659,670,0.170165555527353,670,0.0408722128929904,670,0.0672499510774818
669,0.247884667988984,669,0.16722533799551,669,0.0412762837934678,669,0.0681762868908879
668,0.249447265989815,668,0.164097931567484,668,0.0413530659023339,668,0.0688279833589037
667,0.250741612144588,667,0.161137330221275,667,0.0415157567223681,667,0.0694684174598261
666,0.252392343126639,666,0.158308648477276,666,0.041765336309573,666,0.0702893795405788
665,0.253615339619842,665,0.155470314242561,665,0.0419554663091018,665,0.0711461700571772
664,0.255122102610486,664,0.152709385919581,664,0.0421748605921735,664,0.0718933600047742
663,0.256763322945905,663,0.150069271913989,663,0.0427714899530691,663,0.0729210814868421
662,0.25825474599877,662,0.147439221734017,662,0.0425310097516345,662,0.0735319848336216
661,0.259695901463973,661,0.144762210583485,661,0.0429978131532152,661,0.0746769292993517
660,0.26134276541672,660,0.142404895051283,660,0.0432750418804554,660,0.0756148236539259
659,0.262635668463622,659,0.140328885002547,659,0.0435295550727274,659,0.0763786367426355
658,0.26455946678872,658,0.13801209275636,658,0.0439551257063134,658,0.0774438943673899
657,0.2660488617391,657,0.135528708487772,657,0.0441710621875511,657,0.0783824877310855
656,0.267850770338044,656,0.133400864910928,656,0.0443797088855792,656,0.079508350399301
655,0.269619682074558,655,0.131132895124424,655,0.0449112231885445,655,0.0807261627543214
654,0.271123952977504,654,0.129062037480353,654,0.045211478938067,654,0.0816902549365437
653,0.272812048035214,653,0.126874101255052,653,0.045692274322253,653,0.0829707976942578
652,0.274675378820195,652,0.124960343300664,652,0.0460580558544031,652,0.0842207777092496
651,0.27617734584542,651,0.123019174403846,651,0.0465670488354537,651,0.0852613345937217
650,0.278052944042286,650,0.121363352277514,650,0.0470123667172358,650,0.0864629037462977
649,0.279900874545487,649,0.119229161181433,649,0.0474808669379101,649,0.0878024826647133
648,0.281464654144756,648,0.11737891126332,648,0.0478363094043742,648,0.0888464898380775
647,0.283347569129961,647,0.115828428471165,647,0.048511451087243,647,0.0903952107077103
646,0.28541639649275,646,0.11406521465532,646,0.0488515450507134,646,0.0915956492900445
645,0.287162788796728,645,0.112317042521754,645,0.049420527139679,645,0.0929834042978286
644,0.288849828391835,644,0.110844866865468,644,0.0500700755707581,644,0.0943956820242452
643,0.290793575118211,643,0.109326053072742,643,0.0504650921739614,643,0.0958167631832653
642,0.292389025471845,642,0.107664674086725,642,0.0511028695271673,642,0.0971827361107028
641,0.293861857211607,641,0.10623473782942,641,0.0518475405695609,641,0.0987092438735025
640,0.295425502856864,640,0.104871941659913,640,0.0524126073958782,640,0.10025998313666
639,0.29711068528762,639,0.103382376818548,639,0.0529435232199939,639,0.101817130340172
638,0.298677648468668,638,0.102033104523035,638,0.0535890240148631,638,0.103268031500961
637,0.301002402098369,637,0.10089610948524,637,0.054329906548582,637,0.105015291574223
636,0.302362187297252,636,0.099519564845236,636,0.0550344136596822,636,0.106717380271237
635,0.304414616454512,635,0.0981704419423816,635,0.0557952520334654,635,0.108370614136467
634,0.306149073099336,634,0.097132132579062,634,0.0568154198651028,634,0.110096570176868
633,0.307824770426894,633,0.0957142986243439,633,0.0574567479744561,633,0.111850075628627
632,0.309635289253793,632,0.0945800269079883,632,0.0582681419179747,632,0.113644283402942
631,0.311399937033685,631,0.0935101548099155,631,0.0589180834887673,631,0.115299539316952
630,0.313144313430512,630,0.0925568444749937,630,0.0597680972160285,630,0.117181818634473
629,0.314822662415652,629,0.0910541665485783,629,0.0607276542466518,629,0.118920482215749
628,0.316950524190543,628,0.0905697651974762,628,0.0616730454334903,628,0.121157634590491
627,0.318948320553872,627,0.0896144166532904,627,0.0625474273176213,627,0.123004055207515
626,0.320510114058981,626,0.0886595776147341,626,0.0634062887468406,626,0.124671882504584
625,0.322236716340027,625,0.0875415954562067,625,0.0645623853874415,625,0.126926211552494
624,0.324381202207141,624,0.0867476083269339,624,0.0657541235547848,624,0.129035975043538
623,0.326668365568822,623,0.0858015363120672,623,0.0666368898679715,623,0.131039812395815
622,0.328915824618072,622,0.0849575812117781,622,0.0679146651146317,622,0.133289033641091
621,0.33071204793922,621,0.0843377599812026,621,0.0690251215063537,621,0.135486553564649
620,0.332750310097635,620,0.083477473168433,620,0.070191637711995,620,0.137531815858798
619,0.334944286572228,619,0.082453319999471,619,0.0713723399648962,619,0.139929847609781
618,0.337226263370351,618,0.0820508879733374,618,0.072911865382472,618,0.142417435151504
617,0.33903884081599,617,0.0815378776360399,617,0.0742803457470238,617,0.144973530118005
616,0.341304829552614,616,0.0806128605547652,616,0.0756975540100052,616,0.147414177351018
615,0.343406238704845,615,0.080128161239232,615,0.0768365197755932,615,0.149773332668415
614,0.345851119451512,614,0.0791855431396248,614,0.0781524525230693,614,0.151955511614712
613,0.347713130264426,613,0.0788382061040332,613,0.0800111245839424,613,0.154809305499523
612,0.350223205789189,612,0.0780100163975694,612,0.0816612622706989,612,0.157240578416348
611,0.352509995502004,611,0.0776964312009684,611,0.0834219796866311,611,0.160091404719648
610,0.354180982348471,610,0.077034391331614,610,0.0849945707030015,610,0.162552287140613
609,0.356337259096926,609,0.07671252131242,609,0.0865406497017605,609,0.165175599528751
608,0.358667878210265,608,0.0760795504456335,608,0.0884587509340304,608,0.168121787662025
607,0.361341443730368,607,0.0756913294275179,607,0.0906558089112765,607,0.17104894875883
606,0.363671306299959,606,0.0751375754843924,606,0.0926900653720147,606,0.174142760372434
605,0.365713799259073,605,0.0747125922411854,605,0.0945276018024092,605,0.176728352685351
604,0.367928070634468,604,0.0745832357999883,604,0.0966095097176924,604,0.179650877594661
603,0.370251494795021,603,0.0740292344185607,603,0.0986964098054497,603,0.182352642779298
602,0.372948984721252,602,0.0736753826703282,602,0.101052330341474,602,0.185680542190084
601,0.375292128039433,601,0.0735121471590308,601,0.103495832396365,601,0.188887031431787
600,0.377419650762038,600,0.0730062401949464,600,0.105930727907228,600,0.191847602074989
599,0.379871150448401,599,0.0728242456143442,599,0.108450821159649,599,0.195046333532245
598,0.382445397962992,598,0.0725331026976605,598,0.111225067285645,598,0.19824730614016
597,0.384429610564843,597,0.0723521012805747,597,0.113411400589152,597,0.201047958169378
596,0.386650244578948,596,0.0720667750872578,596,0.116055712852335,596,0.2038772608216
595,0.389274500565324,595,0.0719887663944788,595,0.11921304928501,595,0.207323195852375
594,0.391825526382305,594,0.0718050597988915,594,0.12192610842119,594,0.210298953917764
593,0.393811269465946,593,0.0715454860422306,593,0.124857910879516,593,0.213481918445917
592,0.396391226894246,592,0.0714382152237671,592,0.128249750598416,592,0.216747221872355
591,0.399128887929653,591,0.0712962861494722,591,0.131411457316135,591,0.219736577289321
590,0.401130554858753,590,0.0713107454163213,590,0.134905289597243,590,0.222772505717352
589,0.403364949993755,589,0.0711862711666764,589,0.137903512960354,589,0.225458172271879
588,0.406276381595953,588,0.0713016549349827,588,0.141648165150983,588,0.228913430068639
587,0.408738521050427,587,0.0710587533246657,587,0.145337979822807,587,0.231738126665411
586,0.411284830809468,586,0.0710777780007282,586,0.149078348936413,586,0.234717683201668
585,0.413722020460298,585,0.0711140308524134,585,0.152992311449139,585,0.237866951717238
584,0.416600823502795,584,0.0710142437166606,584,0.156789675013129,584,0.240374079096779
583,0.419416554143474,583,0.0712039290270813,583,0.160908888134327,583,0.243099823471469
582,0.422174833870772,582,0.0713311844417019,582,0.164796393900253,582,0.246342780807272
581,0.425000538098461,581,0.0714124924769096,581,0.169468545444037,581,0.249180515206809
580,0.427373468902192,580,0.0718522772536922,580,0.173584012111043,580,0.252041353654322
579,0.430549355804114,579,0.0719265039410593,579,0.177957720641518,579,0.254410033960217
578,0.433574526928193,578,0.071824330986083,578,0.182564903756776,578,0.257051803361858
577,0.436432640575089,577,0.0723427137752065,577,0.18685239472238,577,0.259217022268807
576,0.439397928133784,576,0.0724417973530285,576,0.191691447857776,576,0.261717529697369
575,0.442062198561064,575,0.0726907375293716,575,0.196414872522823,575,0.264450139088545
574,0.445175638583696,574,0.0729303896445846,574,0.201057129277681,574,0.266552792205146
573,0.448144588437838,573,0.0731943160570587,573,0.205933628419027,573,0.268634729230927
572,0.451338066975765,572,0.0738120472081203,572,0.210149210400609,572,0.270755810233054
571,0.45425782019026,571,0.074022051417746,571,0.215097993173965,571,0.272899772100783
570,0.457500300886236,570,0.0746322010424511,570,0.219831042284147,570,0.275043544540155
569,0.460352708528898,569,0.0747121925540591,569,0.22447966725185,569,0.276967236697691
568,0.463657450693075,568,0.0753664807692434,568,0.229597822780309,568,0.279207145005289
567,0.466675263687906,567,0.075674505012405,567,0.234483498771594,567,0.280495162717211
566,0.469591677716266,566,0.0761312448846864,566,0.239060797534942,566,0.282525855804297
565,0.472561159009482,565,0.0767284593412213,565,0.243856745284266,565,0.284051733250676
564,0.476240214054437,564,0.0773267745576684,564,0.248542935424385,564,0.285604725112273
563,0.479624757040125,563,0.0779473493865976,563,0.252789618870083,563,0.287544910941617
562,0.48275623248459,562,0.0786186942810736,562,0.257577903323232,562,0.288912707753098
561,0.485901813810014,561,0.0794582728269417,561,0.261666978159255,561,0.289637307634694
560,0.489266397459197,560,0.0801294064795983,560,0.266733401249464,560,0.291797912991381
559,0.492139550209902,559,0.0809162713807465,559,0.270703954284989,559,0.292811386190443
558,0.49576010758379,558,0.0816089054202781,558,0.274617596418156,558,0.293630467278766
557,0.499067529919864,557,0.0820541712406582,557,0.278652574592653,557,0.293878968160944
556,0.502329509790747,556,0.0830942767139499,556,0.282679234826037,556,0.294953418272836
555,0.505911734879734,555,0.0839011072931351,555,0.286637537331056,555,0.296167305997642
554,0.509056855097277,554,0.0846849950052774,554,0.29068699521881,554,0.296283074433778
553,0.512217046018086,553,0.0855168206642514,553,0.294020312051407,553,0.296891865527658
552,0.515706558353754,552,0.086218857347438,552,0.297441483695808,552,0.297354923109715
551,0.519024077757117,551,0.0873818334985443,551,0.30067695104877,551,0.297485386672297
550,0.523179497657753,550,0.0884949290633291,550,0.303709547468479,550,0.298032260667595
549,0.526308101448611,549,0.089440150227534,549,0.306868716347244,549,0.297675375964383
548,0.530659529835204,548,0.0905642166327763,548,0.310054470142759,548,0.297535867743284
547,0.534217214760012,547,0.0915441584639609,547,0.312174737150087,547,0.297533402610668
546,0.537619688825888,546,0.0927043895320978,546,0.314730323526493,546,0.297321094212655
545,0.541745891986234,545,0.0937204622853625,545,0.316899641658275,545,0.296699040590596
544,0.545622843282966,544,0.0948970938806626,544,0.319033789952292,544,0.296038926680214
543,0.549342591342045,543,0.0961989513312949,543,0.321223816375981,543,0.295219177280981
542,0.553485478517403,542,0.0973081209971707,542,0.322911882166545,542,0.29462527407911
541,0.556424575440332,541,0.0982455736773761,541,0.324024029743744,541,0.293575501655735
540,0.561004227393455,540,0.0995051768907422,540,0.32578014253801,540,0.292803410441664
539,0.56481681042662,539,0.10089219080514,539,0.326978501286447,539,0.291275128509182
538,0.569155734582227,538,0.102271756815276,538,0.328012475466113,538,0.289991581954801
537,0.572897658503527,537,0.103493795584488,537,0.328968465997096,537,0.288831051933093
536,0.576156692437571,536,0.10466637695164,536,0.329555185165651,536,0.287342043837337
535,0.581073162788757,535,0.106141321112213,535,0.330002379552738,535,0.285602026990471
534,0.584760373037346,534,0.107574796078285,534,0.330373422623184,534,0.28417452540404
533,0.588349565870808,533,0.108562816804327,533,0.330374281181828,533,0.282723705518808
532,0.59230249183566,532,0.109894285844973,532,0.330208361638709,532,0.280919206495271
531,0.596134351637558,531,0.111310820494348,531,0.32973523553592,531,0.27875481500644
530,0.600821510386383,530,0.11259818177445,530,0.32904844783346,530,0.276672860001201
529,0.604189535860531,529,0.113698294281893,529,0.328582485372352,529,0.275052468621322
528,0.607560028101042,528,0.114994044589781,528,0.327989035081411,528,0.2734077845958
527,0.612302934655146,527,0.116325477910089,527,0.326849887580127,527,0.270925181865951
526,0.616805112523452,526,0.117708661477293,526,0.325647171099782,526,0.269140708763157
525,0.620324317437413,525,0.118855675585815,525,0.324373335297241,525,0.266853833068659
524,0.625180821994954,524,0.119916704610108,524,0.322682039300085,524,0.264663965432728
523,0.629963707145587,523,0.1212283636512,523,0.32111847558192,523,0.262172379795324
522,0.634620550236523,522,0.122513619763946,522,0.31937294654993,522,0.260155235034999
521,0.639526847627223,521,0.123311696989075,521,0.31738731192936,521,0.257565162284024
520,0.644585177061973,520,0.124631216662496,520,0.315267077381478,520,0.255267126032401
519,0.649007633758622,519,0.125232175512644,519,0.313233653308385,519,0.253086087407458
518,0.653624895009555,518,0.125873742639764,518,0.310983879275328,518,0.250750004456403
517,0.65853041131554,517,0.126752985439489,517,0.30853927040675,517,0.24814301492902
516,0.663820822510933,516,0.12745054003148,516,0.306020223174657,516,0.245788484431022
515,0.66907575959879,515,0.127885039747396,515,0.303398511259318,515,0.243252307917874
514,0.673971771106737,514,0.128272287823412,514,0.300488488309187,514,0.240497866122001
513,0.679056550484719,513,0.128601262685413,513,0.297699624968899,513,0.237890856487621
512,0.684461985504632,512,0.128720353508342,512,0.294882103651269,512,0.235615693454677
511,0.68941593157404,511,0.128831153657001,511,0.292024220864624,511,0.233058768792004
510,0.694726152106863,510,0.128989428913844,510,0.289100292356376,510,0.230724689298612
509,0.700121150348622,509,0.128705452313711,509,0.28617310324834,509,0.227994893996826
508,0.705302346888347,508,0.128378903357961,508,0.282988638728882,508,0.225505375959475
507,0.710463530416116,507,0.127841292240198,507,0.279681337299524,507,0.22290465242355
506,0.715817853340402,506,0.127321732426731,506,0.276748051040207,506,0.220420452427959
505,0.721166880545517,505,0.126862522038028,505,0.273368580979249,505,0.217902238925895
504,0.726497347396329,504,0.126245283744785,504,0.270249297034652,504,0.215598713130046
503,0.731581374546809,503,0.125343540149477,503,0.267141004139737,503,0.213045141157729
502,0.736742565638445,502,0.124362793474277,502,0.263602202001959,502,0.210373445869005
501,0.742417806853666,501,0.123421503965493,501,0.260564961717748,501,0.208022638480084
500,0.747167636926842,500,0.122367602371436,500,0.257359390065437,500,0.205535910696606
499,0.752149231322229,499,0.121374306542013,499,0.254158436395929,499,0.203117138585284
498,0.758074000225261,498,0.120339561808522,498,0.251025934370774,498,0.200926325643524
497,0.762812665914857,497,0.119495485781026,497,0.248371613756692,497,0.198918357537526
496,0.767908673479654,496,0.118621172747799,496,0.245329152297725,496,0.196799759529746
495,0.773634652119111,495,0.117511962047836,495,0.242320610143011,495,0.194724478053842
494,0.778964105204397,494,0.116421720567439,494,0.239405041343828,494,0.192624981204193
493,0.784396483351876,493,0.11551546905798,493,0.23656871625369,493,0.190678233356367
492,0.788727261528159,492,0.114875252256124,492,0.234408973664715,492,0.189251733395313
491,0.793027037152058,491,0.114057741932594,491,0.232153875197083,491,0.187519090541238
490,0.798927074978433,490,0.113198496242532,490,0.229409666385638,490,0.185626837044117
489,0.803744258502302,489,0.112483229061866,489,0.227068646472942,489,0.18409062090609
488,0.807964215994684,488,0.111893815705078,488,0.225127716156246,488,0.182951037830046
487,0.812226630646984,487,0.111405155202607,487,0.223218835215211,487,0.181749012985797
486,0.817366303298011,486,0.110675798994836,486,0.22104442402107,486,0.180293349076638
485,0.822510502932044,485,0.110266814121314,485,0.218987467904166,485,0.17886165639906
484,0.826043861010853,484,0.109855847136331,484,0.217592304745974,484,0.177958227592235
483,0.829828014640215,483,0.109604429217437,483,0.216265663121658,483,0.177278665260124
482,0.834232775653586,482,0.109143330443955,482,0.214576296487523,482,0.176323544186002
481,0.838257360926353,481,0.108836579941632,481,0.212924371062024,481,0.175372379754105
480,0.84209063252646,480,0.108449026805765,480,0.211547213463469,480,0.174489364605753
479,0.84569680674563,479,0.108401678479437,479,0.210426938383234,479,0.173809217376575
478,0.849291093037432,478,0.108271023877442,478,0.209112797264606,478,0.173171863109814
477,0.852229924874682,477,0.108194038121704,477,0.207887840303956,477,0.172510140962235
476,0.85490228960029,476,0.107955893813137,476,0.206969602399748,476,0.171895492927171
475,0.858038633673197,475,0.108004089816202,475,0.206037659653039,475,0.171592952537679
474,0.860611722053922,474,0.107770030811319,474,0.204925721118167,474,0.17097234755411
473,0.86297997537007,473,0.107914772113692,473,0.204282659835931,473,0.17066557926391
472,0.865090325572806,472,0.107960706534492,472,0.203415131245552,472,0.170268410593411
471,0.866906068237801,471,0.108063744755677,471,0.202753945962793,471,0.170015090085499
470,0.869096330042196,470,0.10805066445155,470,0.201973941903638,470,0.169530539060498
469,0.870811979940442,469,0.108301549618325,469,0.201433311564304,469,0.169527249849292
468,0.872668940722736,468,0.108380248828666,468,0.20077476442237,468,0.169301501213351
467,0.874218209331218,467,0.108378986339588,467,0.20024551675573,467,0.169114689671593
466,0.875791353016966,466,0.108572921095854,466,0.199761154261146,466,0.168915087346997
465,0.877674216975575,465,0.108714904602409,465,0.199415751463644,465,0.168845773265189
464,0.879060536690066,464,0.108936765714945,464,0.199067757447291,464,0.168751271887406
463,0.880511646848303,463,0.109111780375345,463,0.198677747554893,463,0.16868137319013
462,0.882859793280947,462,0.109320525992205,462,0.198240604945728,462,0.16870061234296
461,0.884908646141635,461,0.109491565119986,461,0.198004208850153,461,0.168707216455005
460,0.886435211731509,460,0.109625319621036,460,0.197720393113458,460,0.168705613135335
459,0.888603230085612,459,0.109791812402361,459,0.197503329062272,459,0.168699238089492
458,0.890862703923617,458,0.110013290719354,458,0.197371266853685,458,0.168752684483879
457,0.893667479352714,457,0.110333755650426,457,0.197238307161966,457,0.168779639232018
456,0.895840835310105,456,0.110571905518635,456,0.197018142701411,456,0.168803388285951
455,0.898521668756041,455,0.110755631182548,455,0.196857226714476,455,0.16895160103091
454,0.901491367968675,454,0.111030011706899,454,0.196869242430779,454,0.169077474548979
453,0.903965919008669,453,0.111252356641589,453,0.196705572150444,453,0.169082670719519
452,0.907105076269274,452,0.111653098933171,452,0.196706834362466,452,0.16930501807677
451,0.909795239390357,451,0.111819165505369,451,0.196576723677443,451,0.16931449845915
450,0.913163365916621,450,0.112074080680003,450,0.196570048210504,450,0.169477608733245
449,0.915787421752558,449,0.112366160857289,449,0.196623210566757,449,0.169694074860125
448,0.918829620961213,448,0.112568526630637,448,0.196506392204809,448,0.169804127989767
447,0.921756388756713,447,0.11288601565723,447,0.196596058688116,447,0.170080263676009
446,0.92438723102068,446,0.113196614977435,446,0.196522997219843,446,0.170142727687524
445,0.926841337324805,445,0.113462760569623,445,0.196586370722537,445,0.170229219366112
444,0.930289467475918,444,0.113882775600081,444,0.196702233413748,444,0.170482588179732
443,0.93394591548157,443,0.114101334627891,443,0.196776628181614,443,0.170832880559369
442,0.93711579816576,442,0.114510174331931,442,0.19702535476306,442,0.171056778500734
441,0.939736803269085,441,0.114672921397267,441,0.196924559745016,441,0.171120534741799
440,0.943082631388743,440,0.115013576593111,440,0.197161795305686,440,0.171557176753589
439,0.946524636432086,439,0.115215121243497,439,0.197204186997152,439,0.17156866618469
438,0.950748596576434,438,0.115618964301792,438,0.197360379019464,438,0.172005951536711
437,0.95462757856348,437,0.11591627873047,437,0.197503573810252,437,0.172192164037009
436,0.958513725971617,436,0.11619448139507,436,0.197709414901807,436,0.17245361182632
435,0.962241604322061,435,0.11643370163145,435,0.197735820214423,435,0.172672876586741
434,0.966158453778585,434,0.116826450574631,434,0.197957900583601,434,0.17302679146608
433,0.970207256236953,433,0.117273062894417,433,0.198175028591437,433,0.173315208474711
432,0.975032376481168,432,0.117493097702558,432,0.198349103460664,432,0.173495923447207
431,0.979239770581965,431,0.117903038870238,431,0.198648012981882,431,0.173859935563231
430,0.983486019382009,430,0.118135183422112,430,0.198889343076949,430,0.174113538074786
429,0.988123785737907,429,0.118518115939715,429,0.199050768292436,429,0.174333294659174
428,0.992752006634653,428,0.118839033006754,428,0.199279625037377,428,0.174643168670336
427,0.997135696670293,427,0.119086661464843,427,0.199537945187848,427,0.174843911695271
426,1.00150667585782,426,0.119464640192743,426,0.199757914962113,426,0.175202545906521
425,1.00625296030756,425,0.119822174452971,425,0.199948951891752,425,0.175675625810955
424,1.01022577586116,424,0.120193795469391,424,0.200191827073814,424,0.175839086463405
423,1.01541950135665,423,0.120541133886983,423,0.200593511253625,423,0.176171512972142
422,1.02046706663192,422,0.120961453394464,422,0.200815866117207,422,0.17641422891361
421,1.02464829800802,421,0.121302526904295,421,0.201074567255471,421,0.176705682765337
420,1.02920823899698,420,0.121710428648068,420,0.201418740418518,420,0.17715591973247
419,1.03468891068434,419,0.122185415439413,419,0.201829348185121,419,0.177546583537594
418,1.03934523738543,418,0.122593907349927,418,0.202041990544337,418,0.1778842970298
417,1.04413504860182,417,0.12288789548653,417,0.202359416924224,417,0.17817213559791
416,1.04903963768546,416,0.12331104366391,416,0.202741394750674,416,0.17852099571295
415,1.0542084596619,415,0.123812605128087,415,0.203205246070827,415,0.1790290182279
414,1.05910929761321,414,0.124120303655297,414,0.20342352545462,414,0.179430488236067
413,1.06401803549152,413,0.124617386315086,413,0.203862400483362,413,0.179847134289193
412,1.06936442194959,412,0.125079579111244,412,0.204258173584033,412,0.179999909376994
411,1.07405293302449,411,0.125469688873282,411,0.204639752469338,411,0.180429730598097
410,1.07923711156024,410,0.125886333222665,410,0.205087040048663,410,0.18081734591005
409,1.08449009316883,409,0.12621180883343,409,0.205245885887197,409,0.181088595885844
408,1.09048583478663,408,0.12680483856279,408,0.205703234510779,408,0.18165244867576
407,1.0959589062208,407,0.127383684428526,407,0.206190361569625,407,0.181979162530142
406,1.10243896030583,406,0.127895777497769,406,0.206728908183986,406,0.18249333732248
405,1.1085085684229,405,0.12845986516302,405,0.20719282741889,405,0.182868167308959
404,1.1144589346064,404,0.128575889177118,404,0.207324531027575,404,0.182972497601021
403,1.1213734935207,403,0.129299563434085,403,0.20798853802599,403,0.183835356113211
402,1.12886254114361,402,0.129858741292722,402,0.208418458107574,402,0.184024694762413
401,1.1358193245124,401,0.130280633029901,401,0.208879957333827,401,0.184515564545572
400,1.14317632669695,400,0.130921553644551,400,0.20938470652675,400,0.185012062994226
399,1.1509645313502,399,0.131477884741325,399,0.209767713352711,399,0.185339450760319
398,1.15879499269743,398,0.131839489738482,398,0.210332438002525,398,0.185785391549724
397,1.16717925926518,397,0.132404267053192,397,0.210707493262386,397,0.186270863034713
396,1.17618749433302,396,0.133202945293189,396,0.211241653635582,396,0.186738254454967
395,1.18448822885845,395,0.133655002780442,395,0.211716912003101,395,0.187019798984003
394,1.19297997941081,394,0.134269434259904,394,0.212119784838557,394,0.187261086093777
393,1.20228152330664,393,0.134856485830147,393,0.212536924561868,393,0.187639457365119
392,1.21119535407282,392,0.135354527624761,392,0.21319398354913,392,0.188301532734782
391,1.21998503743262,391,0.13608201736048,391,0.213683366352522,391,0.188727660521486
390,1.23034939476364,390,0.136826973850259,390,0.214276993419131,390,0.189024098802842
389,1.2407814450298,389,0.137325115498265,389,0.214770824693377,389,0.189542361929383
388,1.25064199465004,388,0.138148344919665,388,0.215231776490825,388,0.190074316495078
387,1.26086061650378,387,0.138761652890139,387,0.215710190287675,387,0.190517401092512
386,1.27217253892435,386,0.139373723005775,386,0.216233251666523,386,0.190850131966082
385,1.28358745614324,385,0.140315940200949,385,0.216698274537317,385,0.191275793424517
384,1.29563937272335,384,0.140907289034992,384,0.217260563053804,384,0.191701711492219
383,1.30774237893996,383,0.141711082965399,383,0.217877955897459,383,0.192261789294779
382,1.32107589234489,382,0.142365085327361,382,0.218162939481285,382,0.192449395147614
381,1.3351987550449,381,0.143176227711036,381,0.218786458300376,381,0.192899229402656
380,1.34967394169416,380,0.144020407505776,380,0.219235483646956,380,0.193412644190972
379,1.36485586585052,379,0.144757152894346,379,0.219681539434461,379,0.19378310934074
378,1.37946511165782,378,0.145751108039888,378,0.220142707760747,378,0.193969148321048
377,1.39439067059018,377,0.146360968304474,377,0.220462725082624,377,0.194402334411248
376,1.41070474658148,376,0.147576937119884,376,0.22123808047117,376,0.194785441177414
375,1.42838783965386,375,0.148371907711209,375,0.221698662823115,375,0.195033719183584
374,1.44630688107368,374,0.149360670620205,374,0.222108618928085,374,0.195447547343404
373,1.46449683979897,373,0.150411745560594,373,0.222534907130476,373,0.195702744441359
372,1.48187113984538,372,0.151334999166396,372,0.222948421911392,372,0.196012439274411
371,1.49936041133706,371,0.152369912516091,371,0.223540911566454,371,0.196383665017878
370,1.51624569494841,370,0.153471242426911,370,0.223857332223707,370,0.196740548996024
369,1.53404162351528,369,0.154688017088736,369,0.224206602731735,369,0.197132164339972
368,1.5493237343033,368,0.155610896729787,368,0.2245960528085,368,0.197176550405738
367,1.56383897965361,367,0.156826446201908,367,0.225050041767149,367,0.197510753145714
366,1.57809935232562,366,0.158143941128378,366,0.225482708847971,366,0.198014377728592
365,1.59092609388645,365,0.159862202823282,365,0.226059761379479,365,0.198290702963129
364,1.60317269368277,364,0.161203136030958,364,0.226426635030801,364,0.198527582198691
363,1.61408764221902,363,0.162683359465812,363,0.226963208395883,363,0.198934359289373
362,1.6216938264605,362,0.163973794928903,362,0.227255616405459,362,0.199139528608683
361,1.62928950530114,361,0.165605885319186,361,0.227475139097167,361,0.199321363754221
360,1.63718792489885,360,0.167066303842072,360,0.227731680771085,360,0.199475122993223
359,1.64413053099033,359,0.168883655954481,359,0.228252662435819,359,0.199769929192555
358,1.6503323995319,358,0.170412908516642,358,0.228534023036685,358,0.199806465976483
357,1.65507284569141,357,0.172146142115447,357,0.228650141791591,357,0.199951331155298
356,1.66019027276167,356,0.174298529836442,356,0.229338684323823,356,0.2004289244644
355,1.66526668272758,355,0.17627529550661,355,0.22962325319938,355,0.200805713636836
354,1.66907687718869,354,0.178300125111287,354,0.230083322105677,354,0.200978255850842
353,1.67374058779655,353,0.180384121544985,353,0.230330322889326,353,0.201222777200982
352,1.67714012086081,352,0.183229979179807,352,0.230789776572499,352,0.201741478173619
351,1.68145596278478,351,0.185503138039853,351,0.231052074080425,351,0.20213866185076
350,1.68486251920313,350,0.18784454453148,350,0.231411591717955,350,0.202298288743384
