1100,0.024797366598577
1099,0.0283457940147771
1098,0.0306036778776468
1097,0.0278834275331344
1096,0.0265713135674497
1095,0.0290968693095221
1094,0.0279705220376942
1093,0.0267763249141792
1092,0.0304486604898171
1091,0.0295133161504238
1090,0.0315743350264374
1089,0.0302834010310614
1088,0.0271268685157533
1087,0.0311440050760068
1086,0.0327285016067434
1085,0.0299527655721541
1084,0.032927923701728
1083,0.0336368181982829
1082,0.0323615563893701
1081,0.0307795349054604
1080,0.0310361138323301
1079,0.0339549040348648
1078,0.0323443773808774
1077,0.033537925541926
1076,0.0320589316151943
1075,0.0338263041636703
1074,0.0339414965248806
1073,0.0368803113476874
1072,0.0343008152994075
1071,0.0368758307122364
1070,0.0348706726361303
1069,0.0345384616292969
1068,0.0367231503946319
1067,0.0356676910088712
1066,0.037378739401966
1065,0.037387175052133
1064,0.0372851682793618
1063,0.038422419926685
1062,0.0392638152747183
1061,0.038469396350898
1060,0.0393328456173981
1059,0.0394079810092764
1058,0.0404072896614553
1057,0.0395129542473604
1056,0.0398567398637355
1055,0.0422189638648064
1054,0.0412907452368675
1053,0.0411920583025698
1052,0.0414356994132697
1051,0.0424611837837455
1050,0.0420672457253392
1049,0.0432209945512893
1048,0.043997748683694
1047,0.0433836716182813
1046,0.0436649538106094
1045,0.0444823635002606
1044,0.0450079164183631
1043,0.0443556258421558
1042,0.0458915257762439
1041,0.0465490681160606
1040,0.0459055375110236
1039,0.0473457745807419
1038,0.0473940727066962
1037,0.0470849478444881
1036,0.0481773788597787
1035,0.0485040122463408
1034,0.0486952627637274
1033,0.0489611152039067
1032,0.0500227279215529
1031,0.0512310384505728
1030,0.0498748505925947
1029,0.0529384643733725
1028,0.0523761594226003
1027,0.0520339955539732
1026,0.053767673345917
1025,0.0545297276463478
1024,0.054262410679735
1023,0.0545938307162151
1022,0.0548476061861348
1021,0.0566211209634482
1020,0.0569478831957196
1019,0.0566138368140014
1018,0.0578162833477435
1017,0.0588741783246778
1016,0.0584831113248803
1015,0.0592859524653062
1014,0.0603798014572794
1013,0.0607824063962702
1012,0.0610858566286001
1011,0.0623162140816264
1010,0.0637335216374109
1009,0.0629701220168768
1008,0.0639054176584401
1007,0.0646171125002014
1006,0.0654236498145137
1005,0.0662530650619291
1004,0.0663453402722394
1003,0.0676256444629623
1002,0.0681600236589281
1001,0.068636513138304
1000,0.069644726083307
999,0.070392348725804
998,0.0719492021234843
997,0.0722421548270075
996,0.073191007178467
995,0.0740334399058014
994,0.074950255992319
993,0.0760670595740471
992,0.0764767932845002
991,0.0775884351644963
990,0.0779819498757081
989,0.0785324900557125
988,0.0795427335035616
987,0.0808034496293683
986,0.0814984956432412
985,0.08292724367527
984,0.0834126007652822
983,0.0848128015904359
982,0.0859517572437028
981,0.0865782482283025
980,0.0878958395423576
979,0.0885009590445604
978,0.0888709474392722
977,0.0898258698124963
976,0.0916537316204237
975,0.0919567999483853
974,0.0930940789370918
973,0.0937058476169259
972,0.0960601609645541
971,0.0963227599190953
970,0.0967376725443364
969,0.0980199903719747
968,0.098614768020308
967,0.0999319399706591
966,0.100716082640399
965,0.102399668416455
964,0.103426126298159
963,0.104222828494036
962,0.10495918532852
961,0.106494995781469
960,0.107203707359562
959,0.107234456393326
958,0.109346430627992
957,0.109732852795292
956,0.111601852094306
955,0.111248845047452
954,0.111985965610878
953,0.112560039728004
952,0.114875387152327
951,0.11528944608866
950,0.115568159376952
949,0.116284063583521
948,0.116764462098373
947,0.117692741664382
946,0.119891628745224
945,0.120933376117427
944,0.120571167628665
943,0.123381883589915
942,0.123752089766416
941,0.124990787781039
940,0.126364561254346
939,0.126576017427712
938,0.127905889990864
937,0.128252776361581
936,0.130054897911197
935,0.131783069912932
934,0.132092083724863
933,0.133123310296733
932,0.13462274874958
931,0.1360522371654
930,0.137358357104467
929,0.137801928477163
928,0.139556341543695
927,0.140668663071314
926,0.141522105854607
925,0.142121707391543
924,0.143988887920423
923,0.144627190487872
922,0.145903755444229
921,0.146553659353707
920,0.14712418209205
919,0.150147906112348
918,0.150386016814477
917,0.151075913433486
916,0.151977329732447
915,0.153231250443787
914,0.154156167717852
913,0.155607748309779
912,0.156412188994126
911,0.157961382746949
910,0.158377307405338
909,0.160476973158962
908,0.160584302800413
907,0.16277459138357
906,0.163874307298932
905,0.164091623800172
904,0.165437970861644
903,0.166010647441583
902,0.167693344909295
901,0.168592823000086
900,0.169354563005407
899,0.170486842910753
898,0.171891685836683
897,0.173361817482998
896,0.173661345678144
895,0.174438031323266
894,0.17528036202735
893,0.17675347373874
892,0.177316161534268
891,0.179027298161351
890,0.178542081495027
889,0.179920812179814
888,0.181321814659681
887,0.182043164909543
886,0.182705824791665
885,0.184006188201973
884,0.184177562219012
883,0.185972921030438
882,0.186258739505704
881,0.186424165434234
880,0.188281085918931
879,0.188572104392534
878,0.189099910397818
877,0.189887853851686
876,0.19101004268373
875,0.191394229695423
874,0.191916055497241
873,0.193133871842761
872,0.193800500345572
871,0.195236282583767
870,0.195051038656432
869,0.195396111855998
868,0.196361410187975
867,0.196979069263169
866,0.197816923538365
865,0.198549130517229
864,0.200418082902696
863,0.201369679589725
862,0.200732844700596
861,0.200004375708223
860,0.20088102027341
859,0.201280421206295
858,0.201977733552231
857,0.201985316948728
856,0.203077223347335
855,0.202087128625586
854,0.204392347012848
853,0.20507990040836
852,0.203942503308972
851,0.205929344580162
850,0.204947796732923
849,0.205104516058852
848,0.205497268308924
847,0.204894601386763
846,0.205428966949802
845,0.206220950015364
844,0.206702825359721
843,0.205294929755841
842,0.206675744212588
841,0.205919820468462
840,0.206101188778405
839,0.204958419985052
838,0.206354274208615
837,0.205388381753277
836,0.205659423189106
835,0.205443631725343
834,0.204994399882624
833,0.204453480525301
832,0.204536096970088
831,0.202838923906929
830,0.203634384966797
829,0.202780907523189
828,0.203122221223606
827,0.20260834943409
826,0.201244665386898
825,0.201223723471919
824,0.200908564717421
823,0.200429869007214
822,0.200034326384043
821,0.19854017577305
820,0.197895714797882
819,0.198111055223581
818,0.198443198317257
817,0.196198093819464
816,0.196860037140369
815,0.194621216968486
814,0.194347863856469
813,0.194051817431447
812,0.191397809426826
811,0.191795866500373
810,0.190260417946317
809,0.188989017915741
808,0.187445905960367
807,0.186464607166938
806,0.184790006452462
805,0.18392956045406
804,0.182643183195387
803,0.182529040247817
802,0.179677460249883
801,0.180108373133419
800,0.177596220505564
799,0.176862724444831
798,0.176120407634173
797,0.173632001315504
796,0.172989278164342
795,0.170359908866363
794,0.169157181472506
793,0.168529360415406
792,0.166164779168897
791,0.165303375437845
790,0.163350664602218
789,0.162488760281874
788,0.160491544458149
787,0.158648694668024
786,0.156785849502593
785,0.155059678543869
784,0.152991685548586
783,0.150696730213409
782,0.150287324795929
781,0.148332676437308
780,0.146029245351272
779,0.145098859947994
778,0.142343493312192
777,0.141151169476792
776,0.139355169234216
775,0.137404139507139
774,0.135654313392112
773,0.134090505385996
772,0.131870385240839
771,0.130397948435386
770,0.128084200451791
769,0.126600546772914
768,0.125414021361386
767,0.122336860899613
766,0.121398338427723
765,0.118962080642172
764,0.117811356596267
763,0.116256320900492
762,0.113884155131949
761,0.112556047922059
760,0.110528598863308
759,0.108039908354504
758,0.107573502766688
757,0.105112192459012
756,0.103663146402138
755,0.101733787399788
754,0.0996866237083672
753,0.0985784516171553
752,0.0964414644933076
751,0.0953381786171317
750,0.0939377167283357
749,0.0919825850679534
748,0.0906126254651736
747,0.0886709754963139
746,0.0870263318960883
745,0.0851351595087593
744,0.0847990500364496
743,0.0826195759361612
742,0.0813981985612226
741,0.0795996301522716
740,0.0785831434341174
739,0.0774607565288337
738,0.0759394265429366
737,0.0746541803318724
736,0.0732146907261503
735,0.072217637750637
734,0.0711377843617144
733,0.0692394416067342
732,0.0685374754389371
731,0.0670000619062515
730,0.0654747533918597
729,0.0650300709247279
728,0.0636080232494815
727,0.0623399992149264
726,0.0615177779341327
725,0.0607913091110811
724,0.0602415590737442
723,0.05922423858619
722,0.0579771552476888
721,0.0576906205293798
720,0.0565250802729842
719,0.0555831679175857
718,0.0547146660729197
717,0.0540906236791012
716,0.0534255242635012
715,0.0525347070272902
714,0.0516381039428983
713,0.0514668853792638
712,0.0510232089319616
711,0.0503287196895557
710,0.04938412637829
709,0.0489561604833724
708,0.0485530762136036
707,0.0481129145064925
706,0.0479233655068183
705,0.0471465474657576
704,0.0471193098343666
703,0.0467785510497054
702,0.0464796303393905
701,0.0462681296344338
700,0.0457333137392271
699,0.0452540817580027
698,0.0451819495638061
697,0.0451010126044817
696,0.0444549483289843
695,0.0445783302305262
694,0.0442618580477752
693,0.0440578232482361
692,0.0439060056218205
691,0.0439233617050134
690,0.0436076524688667
689,0.0435292975376732
688,0.0437085502549734
687,0.0434700685317706
686,0.0438455225147796
685,0.0434422308282454
684,0.0436290322551451
683,0.0438020841168686
682,0.0434360226628892
681,0.0438662553583268
680,0.0436514721454818
679,0.0439387135381985
678,0.0440595135922324
677,0.0440728073743466
676,0.0442075158204324
675,0.0444213126222047
674,0.0447278867145496
673,0.0448836948195205
672,0.0448811688417788
671,0.0452257560190043
670,0.0456081369503988
669,0.045783676445168
668,0.0461617989311861
667,0.0464150141993932
666,0.0465406831312548
665,0.0470384149075588
664,0.047549049820859
663,0.0478912232403727
662,0.0484785995798388
661,0.0488831501030207
660,0.0489498729954194
659,0.0494089249721345
658,0.0498226467043662
657,0.0503200579510533
656,0.0508951886328393
655,0.0513929563841685
654,0.0519474536818328
653,0.0527378540470178
652,0.0534421232395388
651,0.0539315364511014
650,0.0544078287750531
649,0.0552025473870332
648,0.0559588220459784
647,0.0564837748591133
646,0.0571425350582653
645,0.0582184712868542
644,0.0589807323700126
643,0.0598715430490588
642,0.0607195268650226
641,0.0615438160440497
640,0.0625777727309672
639,0.0636202208090185
638,0.0644993766496405
637,0.0653947599933644
636,0.0666870196714815
635,0.0674675995795701
634,0.0686466394772173
633,0.0700119742926477
632,0.0711355278749461
631,0.0724979241610728
630,0.0736543422993209
629,0.075522159719043
628,0.0764232983052254
627,0.0779333179237393
626,0.0792809184624084
625,0.0812130907480832
624,0.0824350736004962
623,0.084231839702459
622,0.0860760868498117
621,0.0878188963032298
620,0.0893485595530529
619,0.091435731269964
618,0.0936621671440875
617,0.0951630509621973
616,0.097647800528285
615,0.0998331909229356
614,0.10205586040657
613,0.104402734980249
612,0.106590275296467
611,0.109303778701741
610,0.111870170063119
609,0.114213618590013
608,0.117151747153427
607,0.120152795765683
606,0.123094090914468
605,0.126011117331409
604,0.128942121417959
603,0.132098855728678
602,0.135233391834157
601,0.138940378326166
600,0.142689166350154
599,0.146410211902235
598,0.150371561075426
597,0.153879935541983
596,0.157853954645542
595,0.161918714122349
594,0.165980146316387
593,0.170253622481226
592,0.174890917394399
591,0.179424540721454
590,0.183902320926064
589,0.188539617301776
588,0.193362135999493
587,0.198545777577693
586,0.203585776450794
585,0.208756488482048
584,0.214421550938406
583,0.220001045151387
582,0.224880440846588
581,0.23064473073773
580,0.236671111015848
579,0.242592637283201
578,0.247868451970253
577,0.253812704347009
576,0.259612921901864
575,0.265812630642183
574,0.271582381582687
573,0.277648465936151
572,0.283587020972476
571,0.289618497099617
570,0.295301225688673
569,0.302119140388785
568,0.308185886655604
567,0.313316780390162
566,0.319291837980843
565,0.32509339252844
564,0.331231276169385
563,0.33662041395933
562,0.341891088479175
561,0.347389879126491
560,0.352051690720267
559,0.357617144634165
558,0.36232998554167
557,0.367156440390643
556,0.372119695000237
555,0.376775746985825
554,0.38060422349519
553,0.384678856384288
552,0.388297030612181
551,0.392081959455655
550,0.395341752521396
549,0.397998734961548
548,0.401189883721917
547,0.403685698723863
546,0.405889282349991
545,0.408052334649792
544,0.41000016177324
543,0.411332715324535
542,0.412694610068381
541,0.413432604910848
540,0.41428805831701
539,0.414990805818736
538,0.41511567681283
537,0.415447415616709
536,0.415061920665654
535,0.414398645718353
534,0.413826925865476
533,0.413068928684495
532,0.411650421786258
531,0.410076187187982
530,0.408512445710678
529,0.407002219503894
528,0.405211165994505
527,0.403002401834973
526,0.400641205387981
525,0.39800844362091
524,0.395362209595406
523,0.39256757039051
522,0.389326743629418
521,0.386313255578287
520,0.38284077211171
519,0.379905108273797
518,0.376711649432478
517,0.372918957032312
516,0.36915855457518
515,0.365393865426003
514,0.361838068576234
513,0.357846418663785
512,0.354212521494676
511,0.350179229232886
510,0.346480512373927
509,0.342250829409455
508,0.338119229213526
507,0.334296501656513
506,0.329933648337191
505,0.325980813854984
504,0.322315712547818
503,0.318198890904415
502,0.314189509438277
501,0.310239965528456
500,0.306572425585173
499,0.302838889695757
498,0.299059992373972
497,0.295731646166233
496,0.292098110773749
495,0.288771304904354
494,0.285213872028484
493,0.281800037838005
492,0.279185088406367
491,0.276466592068337
490,0.273398408439878
489,0.270476180124338
488,0.268181895943491
487,0.265979225391823
486,0.263248160864102
485,0.260969410079554
484,0.259385527153737
483,0.257587037754184
482,0.255586646549952
481,0.253878419635198
480,0.251991592189129
479,0.250435127225835
478,0.249097085818505
477,0.247775015523246
476,0.246573767714475
475,0.245183357510701
474,0.244112025335256
473,0.24317920839532
472,0.242345982485955
471,0.241448450109415
470,0.240496470000301
469,0.239813404314694
468,0.238865894955278
467,0.23825791959787
466,0.237831634155632
465,0.237195291302629
464,0.23672182634111
463,0.236400714386513
462,0.235898969965418
461,0.235559363102188
460,0.235330554426173
459,0.235032171426193
458,0.234675821963418
457,0.234567232636023
456,0.23432709073677
455,0.234040666376902
454,0.233951532981418
453,0.233950024659259
452,0.233857494677127
451,0.233773853184001
450,0.233732260177854
449,0.233686060250322
448,0.23379039394059
447,0.233791635631385
446,0.233942438765476
445,0.233753366578679
444,0.233879804753146
443,0.233853414230542
442,0.234206248375068
441,0.234247132126169
440,0.234249041016409
439,0.234576695355875
438,0.234665024018395
437,0.234925449300646
436,0.235006022079797
435,0.235319651185402
434,0.235440581217621
433,0.235747931500814
432,0.23607841311128
431,0.236398037591948
430,0.236417444726346
429,0.236829392788116
428,0.236961822281891
427,0.237267301044056
426,0.237686678715879
425,0.237907420489759
424,0.238216074143463
423,0.238553416648724
422,0.238938182253639
421,0.23935634746264
420,0.239644187769743
419,0.24002798692457
418,0.240585695702189
417,0.240884043519081
416,0.241322180906342
415,0.241620177367027
414,0.242076505356761
413,0.242704519602085
412,0.243198558404427
411,0.243615540718089
410,0.243948979270871
409,0.244490977178673
408,0.244857112994214
407,0.245597010417455
406,0.245818072211673
405,0.246521706175335
404,0.246884531342663
403,0.24753981873174
402,0.24809933534528
401,0.248792034280518
400,0.249152397344901
