1100,0.0146622452013056
1099,0.0146744011425255
1098,0.00782691514692778
1097,0.0149860467554264
1096,0.0111056486282594
1095,0.0100044750421027
1094,0.0105996712736639
1093,0.0117092179999325
1092,0.0114855188742492
1091,0.0121156752970063
1090,0.0133175820418914
1089,0.013316194057293
1088,0.0116767752811104
1087,0.0125941362717763
1086,0.0122506509807324
1085,0.0129395469061029
1084,0.0130351385121238
1083,0.0124726667259548
1082,0.0132962022327687
1081,0.014358403685925
1080,0.0136380048668684
1079,0.0147318385503024
1078,0.0108495606029701
1077,0.0129086921659172
1076,0.0142769657519182
1075,0.0130578392756305
1074,0.012427727075029
1073,0.0130916125250108
1072,0.0133598376192332
1071,0.0148972846661243
1070,0.0130103050758617
1069,0.0131330190179358
1068,0.0148310129435711
1067,0.0132378068193782
1066,0.0137938424891062
1065,0.0149237801124206
1064,0.0142117782533631
1063,0.0147747408148585
1062,0.0161867722340719
1061,0.0149896104779749
1060,0.0148706033223996
1059,0.0137717979418384
1058,0.0154865134706228
1057,0.0162339298549893
1056,0.0154531167685887
1055,0.0146936799848913
1054,0.0166632055407526
1053,0.0169656227434588
1052,0.0178202770273099
1051,0.0164917347340393
1050,0.0163465377060899
1049,0.0154024767097262
1048,0.0180904409505785
1047,0.0163502738846283
1046,0.0161542082506229
1045,0.017584540274452
1044,0.0194167439367494
1043,0.0164121002104206
1042,0.0178018837181623
1041,0.016944950818388
1040,0.0170431512270517
1039,0.0176019808959339
1038,0.0174791566769308
1037,0.017300117103501
1036,0.0191742413476812
1035,0.0178780241344411
1034,0.0186491345201472
1033,0.0186585111703089
1032,0.0189298191063972
1031,0.018020469256812
1030,0.0191309022865566
1029,0.0181961619566363
1028,0.0193246901277325
1027,0.0203194224984438
1026,0.0200412814320388
1025,0.018954695905569
1024,0.019690232563292
1023,0.020003493808797
1022,0.0193644486999954
1021,0.0200090777125183
1020,0.0203480683725486
1019,0.0205936974843333
1018,0.0216918253713113
1017,0.0201057502609287
1016,0.0214991546052194
1015,0.021049504984958
1014,0.0212346368269719
1013,0.0211994361334388
1012,0.0218993099860296
1011,0.0217443199815375
1010,0.0222137333898033
1009,0.0220863297559482
1008,0.0218735833696575
1007,0.0224099650471269
1006,0.0228788709875227
1005,0.0228364975638687
1004,0.0230755672704206
1003,0.0222596699728177
1002,0.0228271666892544
1001,0.0240633147822514
1000,0.02350297291998
999,0.0235887559919801
998,0.0246217231373194
997,0.0242803396125811
996,0.0249269388988562
995,0.0249164938348076
994,0.0251792868314509
993,0.0250159651642367
992,0.0255196210250915
991,0.0253013999581904
990,0.0268326318904236
989,0.0255939691243243
988,0.0261195458396299
987,0.0265978979236557
986,0.0271545615914057
985,0.0277046279837247
984,0.0276927363816612
983,0.0269883745280361
982,0.0275824165996991
981,0.0282099493790383
980,0.0282228772402705
979,0.028029441505025
978,0.0286803789679436
977,0.0292206151698154
976,0.0293196372512133
975,0.029634714192462
974,0.0295147014650786
973,0.0296983501862677
972,0.0305493793935113
971,0.0303606789976067
970,0.0310251871676331
969,0.0312766256721516
968,0.0315630886014142
967,0.0319333993473892
966,0.0317357421700014
965,0.0327958587899219
964,0.0318644765258503
963,0.0327884609922517
962,0.0331825062611872
961,0.0344144243400457
960,0.0341380881574026
959,0.0342894140108034
958,0.0347932330943923
957,0.0346476751558318
956,0.034513656942636
955,0.0348126407665237
954,0.0350182975788572
953,0.0346921140840812
952,0.0356255967495268
951,0.036002482789153
950,0.0367347566089229
949,0.0370884723175516
948,0.0373477348582165
947,0.037733177861757
946,0.0376613523404205
945,0.0383955260192845
944,0.0381024310432791
943,0.0389007082176187
942,0.0393262424868986
941,0.0392045984783935
940,0.039962048687727
939,0.0402515737916642
938,0.0397582080058743
937,0.0403631427174346
936,0.0413198403870922
935,0.041147717683071
934,0.0420543268887856
933,0.0422453823295028
932,0.0427331001416291
931,0.0424175696605336
930,0.0427995417973201
929,0.0430433434801995
928,0.0436610323489285
927,0.0438817197258572
926,0.0444973049236671
925,0.0450094381881671
924,0.0458283491124404
923,0.045925189227166
922,0.0461580563804609
921,0.0459696174677057
920,0.0471162226258811
919,0.0475859036456116
918,0.0474543302006051
917,0.0482238893689212
916,0.0479444384815128
915,0.0481682682427173
914,0.0488949699985626
913,0.0494729437947267
912,0.0494097371137737
911,0.0496873174575052
910,0.0511590134024446
909,0.0515709376451308
908,0.0510629791716682
907,0.0515651951754889
906,0.0524496718131855
905,0.0526542401780292
904,0.0527987699156765
903,0.0535706330765529
902,0.0533727454920607
901,0.0546721819780147
900,0.0540570249494555
899,0.0551078190521914
898,0.0558890411257288
897,0.0555779605498735
896,0.0567780104960054
895,0.0568630123081233
894,0.057060637216397
893,0.0579103029123221
892,0.0583688918775099
891,0.0585999382227954
890,0.0594978639679574
889,0.0594692469085797
888,0.060081154326
887,0.0607799648809521
886,0.0610821024153341
885,0.0618593203422104
884,0.0623727806100684
883,0.0625855462814418
882,0.0633354507242292
881,0.0634360052179232
880,0.063658044412563
879,0.0647888478159111
878,0.065075234363346
877,0.0659177223641117
876,0.0663329151474525
875,0.0671330704888147
874,0.0672990938301015
873,0.0679661232127411
872,0.0673800736323841
871,0.0687017321101415
870,0.0700573546490926
869,0.0707881382968933
868,0.0705763722011515
867,0.071440839456776
866,0.0715695683967682
865,0.0720657361015153
864,0.0721640229328366
863,0.0731356178431292
862,0.073301531237391
861,0.0756786340209652
860,0.0757452582276339
859,0.0759102294762165
858,0.0760029145847492
857,0.0767542826604324
856,0.0766007553311093
855,0.0771554517076588
854,0.0783517927938178
853,0.0792948381762637
852,0.080233490063824
851,0.0804332272880477
850,0.0810771039535194
849,0.081389331565061
848,0.0817810882418591
847,0.0831370951499892
846,0.0839807515736646
845,0.0829025545597404
844,0.0845464073307345
843,0.0863853296198159
842,0.0852691154356704
841,0.0864167555787471
840,0.0865982494431149
839,0.087140086060896
838,0.0882795232371216
837,0.0880508765701461
836,0.0892863970268913
835,0.0890065374099387
834,0.0900895029375205
833,0.0900349417266028
832,0.0908537294981032
831,0.0918793258347111
830,0.0927495441711579
829,0.0924156582745902
828,0.092584555412741
827,0.0939254085224601
826,0.0946835440420783
825,0.0943777633310637
824,0.0953652937756234
823,0.095433814651147
822,0.0958868402701868
821,0.097053082432061
820,0.0967721532807713
819,0.097078136080862
818,0.0977901146153709
817,0.0976828722440189
816,0.0987708201836958
815,0.0984566611663351
814,0.0990872553817743
813,0.100105970172771
812,0.0996295084599355
811,0.100233310597229
810,0.100990723686266
809,0.100899930232383
808,0.101609408095246
807,0.101754466213481
806,0.101793241643202
805,0.100723982144224
804,0.102652981631873
803,0.102373716090384
802,0.102867830176565
801,0.102966779551815
800,0.102658555659352
799,0.102851657903017
798,0.103239794616318
797,0.102568363566499
796,0.102863926469191
795,0.102970027940685
794,0.102686558032777
793,0.103419951179556
792,0.102089161452878
791,0.10215957030121
790,0.102964351479034
789,0.102372372640976
788,0.10249402081046
787,0.101960457386959
786,0.101560837213075
785,0.101881341816339
784,0.100562201550988
783,0.100599532695665
782,0.100365287191506
781,0.100684975660751
780,0.0998821879738266
779,0.0998750856651117
778,0.0993518543409867
777,0.0986427707553059
776,0.0983685386565059
775,0.0974650326237022
774,0.0976312056573373
773,0.0970577434665922
772,0.0970045653278305
771,0.0958665357959297
770,0.0950084184193446
769,0.0948294626970696
768,0.0938531731340074
767,0.0936606576768692
766,0.0930709218401743
765,0.0922235547784652
764,0.0915156829192807
763,0.0904673832717217
762,0.0895471258739945
761,0.0887194595216722
760,0.0876679649045753
759,0.0867419503362808
758,0.0864171661842151
757,0.0861110254573411
756,0.0847300156338475
755,0.0837883866106337
754,0.0832169756682384
753,0.0813979175620877
752,0.0813265496692002
751,0.0802934358433152
750,0.0791474299351804
749,0.0783073974904216
748,0.0770013189060194
747,0.076170729269142
746,0.0757971902869622
745,0.0739286832166223
744,0.0735337325547228
743,0.0721245649434716
742,0.071243425458759
741,0.0699577187499848
740,0.068699003086535
739,0.0687403041444751
738,0.0670879644446958
737,0.0662254466218938
736,0.0655217390770408
735,0.0644190522634421
734,0.0628311425107326
733,0.0625253049043505
732,0.0612179302416922
731,0.0601999581582275
730,0.0591940969175617
729,0.0582745361664053
728,0.0571657137114036
727,0.056408574303732
726,0.0552020182852766
725,0.0544602933296965
724,0.0535487875280727
723,0.0532144769116054
722,0.0514557529717073
721,0.0512844314864367
720,0.0503489504631573
719,0.0496539125438224
718,0.0485224503850991
717,0.0482586019499846
716,0.0471899754004989
715,0.0465856354576857
714,0.0454870204114721
713,0.045063048085581
712,0.0443056291210598
711,0.0431615502568361
710,0.042647792078162
709,0.0421671586688773
708,0.0414796707224463
707,0.0409831448564903
706,0.0406987038660724
705,0.0399581037578135
704,0.0392233543124298
703,0.0385573105002313
702,0.0383066550562882
701,0.0376148019692749
700,0.0373694857668287
699,0.0371929991370551
698,0.0366668139555108
697,0.0362312420279338
696,0.0361158346408253
695,0.0354638050666707
694,0.0352074048683261
693,0.0351667586581197
692,0.0346069691628178
691,0.0348236350927751
690,0.0344864995375365
689,0.034034209943668
688,0.0340412650358663
687,0.0337453015959921
686,0.0333413537714593
685,0.0333865537666752
684,0.0333510251126224
683,0.0333574541579985
682,0.0331590920660715
681,0.0331251465189797
680,0.0331935991069574
679,0.0330311186358755
678,0.0331428034600922
677,0.0331809974325196
676,0.0332062849756035
675,0.0335218743899152
674,0.033490584738033
673,0.0336368181982829
672,0.033679223644492
671,0.0338702953077275
670,0.0340608911134523
669,0.0342991345009507
668,0.0344791009103759
667,0.0347643475584192
666,0.0349674564148152
665,0.0351114657091003
664,0.0355026250793885
663,0.0360015265966439
662,0.0362954017662374
661,0.0367773247730326
660,0.0371744999772414
659,0.0373578343664275
658,0.0378093925336932
657,0.0382137883569538
656,0.0386106673391691
655,0.0393323638405329
654,0.0398188338024698
653,0.0402029559762565
652,0.0407868714558089
651,0.0412609119209885
650,0.0416996510624204
649,0.0424750281876109
648,0.0431578906527362
647,0.0438600124918988
646,0.0445711018722199
645,0.0450836381124851
644,0.045762104039978
643,0.0466507381325416
642,0.0474807225551916
641,0.0483074646091355
640,0.0492184327041134
639,0.0498085660849435
638,0.0508554919583768
637,0.0517634563387792
636,0.0527001512883504
635,0.053780154304105
634,0.0547367758881126
633,0.0558278080358985
632,0.0570100713873127
631,0.0579159524239946
630,0.059123645960013
629,0.060405741678281
628,0.0619212605711879
627,0.0629477386742023
626,0.0641198358266736
625,0.0658173447333556
624,0.0669096405406356
623,0.0682835122664043
622,0.0699754787867801
621,0.0712821934032721
620,0.0730901597509556
619,0.0748892899731723
618,0.0759069615000833
617,0.0778313324141545
616,0.0795191686594008
615,0.081445377771566
614,0.0832680529778604
613,0.0853507754322428
612,0.0872158332498716
611,0.0896120939136553
610,0.0915452451098321
609,0.0933918955761544
608,0.0955699856247746
607,0.0979067885985513
606,0.100480697668264
605,0.102806096662722
604,0.104853519567616
603,0.107240321488592
602,0.10998978058733
601,0.112689977949925
600,0.115410580312665
599,0.11829810517979
598,0.12083441904494
597,0.123527520001243
596,0.126354519214194
595,0.129445349842727
594,0.132420243789503
593,0.135548655699681
592,0.138766320555341
591,0.142087955578998
590,0.14479880833213
589,0.148284561951164
588,0.151465480539642
587,0.154889949062531
586,0.158223715778937
585,0.161860277607831
584,0.165274173775972
583,0.168667173409715
582,0.172356551367104
581,0.175908749561676
580,0.179254914333734
579,0.183144648065314
578,0.186404880388335
577,0.189967023543331
576,0.193923915596203
575,0.196607008791741
574,0.20081109812116
573,0.204165668615721
572,0.20743770204385
571,0.210707577363539
570,0.213971541262487
569,0.217118002240979
568,0.220420753439439
567,0.223706393820699
566,0.226545113634363
565,0.229446983810414
564,0.232623931579101
563,0.235468849072673
562,0.238107044009123
561,0.240630292903354
560,0.243239300469339
559,0.245470759418094
558,0.248039162798923
557,0.249543086241052
556,0.251879511038375
555,0.253799655356504
554,0.255343686994925
553,0.257155399992937
552,0.258791043133626
551,0.260183838763242
550,0.261728643312787
549,0.262360932307761
548,0.2630821358585
547,0.263823737229556
546,0.264735105545262
545,0.265075301104841
544,0.265509448022496
543,0.265941737194841
542,0.265894988932771
541,0.265940925384334
540,0.265441901445889
539,0.265031600524777
538,0.264520435021188
537,0.264077384849261
536,0.263200040769667
535,0.26219879683829
534,0.261286351883532
533,0.260141193037432
532,0.259014695878595
531,0.257404104684388
530,0.255965948137103
529,0.254603852293838
528,0.253156607841487
527,0.251168857664052
526,0.249561388290512
525,0.247512859590796
524,0.24536394629484
523,0.24343694692223
522,0.241113272017735
521,0.239078079558125
520,0.236430026366483
519,0.234299873854663
518,0.232382297775239
517,0.229758116403605
516,0.227448260832193
515,0.224869188606394
514,0.22232905313706
513,0.22000439605348
512,0.217319863351551
511,0.21479574112236
510,0.212220962343808
509,0.209915016794649
508,0.207389291952589
507,0.204506787681886
506,0.202087953109054
505,0.19971830725948
504,0.197293549193121
503,0.19458653194009
502,0.191902001532138
501,0.189541881324938
500,0.187290728486589
499,0.185201717197784
498,0.18284371544076
497,0.180701484133809
496,0.17848007659778
495,0.176560281228278
494,0.174291569472154
493,0.172140024183768
492,0.170783473562674
491,0.169151258355205
490,0.16723663730365
489,0.165745427622551
488,0.164188554456998
487,0.162858535651628
486,0.161235217164612
485,0.159913487747155
484,0.158917862914452
483,0.157951662854813
482,0.156755840841332
481,0.155590006463742
480,0.154333107651235
479,0.153650300244591
478,0.152819523513796
477,0.152020271283472
476,0.151446476315084
475,0.150643775702526
474,0.150050036133453
473,0.149479201870579
472,0.148894090237497
471,0.148401306169577
470,0.147805529066238
469,0.147507528633103
468,0.147106529192895
467,0.146533200233733
466,0.146461818512102
465,0.146107260096997
464,0.145809698017943
463,0.145602351083472
462,0.145355597155875
461,0.145269615421211
460,0.145042462471147
459,0.144853259061445
458,0.144835915022512
457,0.144654350066403
456,0.144557024067217
455,0.144485460940477
454,0.144386368008703
453,0.144376766762212
452,0.144306893406994
451,0.144245474772756
450,0.144360705001105
449,0.144334646508561
448,0.144418927199328
447,0.144390735563248
446,0.14440867548356
445,0.144534961724916
444,0.144449755999843
443,0.144611083348708
442,0.144747398945909
441,0.144691697260406
440,0.144885961685729
439,0.14491140277821
438,0.145189798227433
437,0.14528462573021
436,0.145284047009886
435,0.145523087947805
434,0.145588632820706
433,0.145924764506526
432,0.146023267093794
431,0.14609859915269
430,0.146234548789503
429,0.146525074893201
428,0.146584349840919
427,0.146841821774549
426,0.146942747410556
425,0.147310852737599
424,0.147470956386587
423,0.14763551938821
422,0.148092885386937
421,0.148049602371087
420,0.148301461511562
419,0.148715268811694
418,0.1488130936792
417,0.149183481822796
416,0.149340480443396
415,0.149692171979348
414,0.149874539844309
413,0.150182070707591
412,0.150348176734053
411,0.150707717435263
410,0.151108501484215
409,0.151197517080687
408,0.151580440808193
407,0.152046060294817
406,0.152475735018616
405,0.152662255710575
404,0.152982702134152
403,0.153369967544464
402,0.153544117459858
401,0.153978635617821
400,0.154381379868385
