1100,0.0186334351643315
1099,0.0178615434437222
1098,0.0182104148037385
1097,0.0184190511922198
1096,0.021555026312811
1095,0.0202247092536513
1094,0.017260116090891
1093,0.0192980060204338
1092,0.0220853220079009
1091,0.0208559510484393
1090,0.0210083420842392
1089,0.0218252105681875
1088,0.0178296897404994
1087,0.0207436613968622
1086,0.0200045509501086
1085,0.0201777400142502
1084,0.0222132702342896
1083,0.0228014396143366
1082,0.0217612208408246
1081,0.0197393433631199
1080,0.0184661547269665
1079,0.0209029936980964
1078,0.0240088976934237
1077,0.025713232705043
1076,0.0214988826086453
1075,0.0236133544554497
1074,0.0232763400960313
1073,0.0263351805213149
1072,0.0221515387492006
1071,0.0246873961604469
1070,0.0244629379287445
1069,0.0224301082668647
1068,0.0242630667038701
1067,0.0244189583662952
1066,0.0244648275614143
1065,0.024399872731515
1064,0.0241860997472366
1063,0.0260483785497949
1062,0.0262184682250615
1061,0.0256465256437171
1060,0.0273996051292016
1059,0.0257194123461864
1058,0.0275721833016123
1057,0.0259025618955355
1056,0.0271610924546293
1055,0.0286431041055405
1054,0.0266959934169516
1053,0.0271549198218637
1052,0.027095485164603
1051,0.0286001369058589
1050,0.0281906135527027
1049,0.0287323976804535
1048,0.0301231985380292
1047,0.0288365091274281
1046,0.0288902895332454
1045,0.0291817435442788
1044,0.02970164864744
1043,0.0301506393922012
1042,0.0299430586762608
1041,0.0315726925848206
1040,0.0306737899008091
1039,0.0310492095102144
1038,0.0317687159204423
1037,0.0311147772493844
1036,0.0324956094589559
1035,0.0321404007109962
1034,0.0319813230344125
1033,0.0315993899906789
1032,0.0331616625365476
1031,0.0347186113818682
1030,0.0345399751814618
1029,0.0348801256373812
1028,0.0352304244370273
1027,0.0352264661072512
1026,0.0358138442748275
1025,0.0361300971304194
1024,0.0360751877085886
1023,0.0362190583766045
1022,0.0369723577735248
1021,0.0378663857893491
1020,0.0388507127281214
1019,0.037583357180217
1018,0.0388374929124785
1017,0.0395342751639241
1016,0.039292009840376
1015,0.0403023272824629
1014,0.0402985212749782
1013,0.040984624140775
1012,0.0411432497202409
1011,0.0419832373861921
1010,0.0422631286800319
1009,0.0423808093249192
1008,0.0432043527599012
1007,0.0440549582734374
1006,0.0443506373786975
1005,0.0442728075685286
1004,0.0448602152746622
1003,0.0455504061744141
1002,0.0459181973726632
1001,0.0464938627383996
1000,0.0473468715496922
999,0.0474180938583387
998,0.0491083918303391
997,0.0486098178600608
996,0.0499966163038212
995,0.0502184552871116
994,0.0505468315319324
993,0.0514308663700919
992,0.0519176086133243
991,0.0525253292596888
990,0.0537433863122026
989,0.0533671547721804
988,0.0542399437171455
987,0.0551502282219044
986,0.0560634260949834
985,0.0565889772563279
984,0.0572455935792758
983,0.0578117884269924
982,0.0586006492331914
981,0.058828736262948
980,0.0601703433513792
979,0.0608424958184737
978,0.0610857970376599
977,0.0620850044189087
976,0.0625450356510474
975,0.0631864141063728
974,0.0637353502793939
973,0.0639822876571252
972,0.0657389446133308
971,0.065973705321698
970,0.0666914866656337
969,0.0674107586144397
968,0.0675011029521427
967,0.068808784009644
966,0.0693894770018762
965,0.0714609794472277
964,0.0715328196869655
963,0.0710003430204781
962,0.072996899787429
961,0.0737564252267362
960,0.0739080602062554
959,0.0734451595449606
958,0.0754074661943642
957,0.0756386089428887
956,0.0772767932567877
955,0.0770571107654924
954,0.0775799860484902
953,0.0777073901671834
952,0.0789435019193912
951,0.0794698047666669
950,0.0797259175973716
949,0.0803081355002664
948,0.0810221658825611
947,0.0813926722782754
946,0.0822697955261745
945,0.0833880095051939
944,0.0828176572728524
943,0.0852897180143036
942,0.0856604163570218
941,0.0861228616663807
940,0.08763410442108
939,0.0872098527282819
938,0.0885897046616358
937,0.088497436255883
936,0.0893800098674713
935,0.0908064743013692
934,0.0915796356602692
933,0.0919306964736231
932,0.0928420152685814
931,0.0940046627655548
930,0.095641055316642
929,0.0958029492281495
928,0.0962720949361385
927,0.0978823357012815
926,0.0980644358104854
925,0.0991714905702131
924,0.100558024839294
923,0.100946075756178
922,0.101136228748239
921,0.102385807322077
920,0.10266757261998
919,0.10496970057704
918,0.105249717386124
917,0.105926730498881
916,0.106735153444223
915,0.10796117121386
914,0.1081764708086
913,0.109282204615382
912,0.110761443806152
911,0.112149344434535
910,0.11196177897396
909,0.113920226398469
908,0.114108033816051
907,0.115550696556593
906,0.116737637041806
905,0.117427859170909
904,0.118438408238498
903,0.118858364324072
902,0.120116168995826
901,0.121551495913526
900,0.121749485678824
899,0.123264041216501
898,0.124179629991552
897,0.124964933998361
896,0.125854373224942
895,0.126585683487322
894,0.127188314010487
893,0.129242217687936
892,0.129689785238493
891,0.131266655522287
890,0.13163877510582
889,0.132124506089174
888,0.133547788383575
887,0.134438629508544
886,0.135347881423796
885,0.135910092315975
884,0.13683417482069
883,0.138266417261426
882,0.138537841998345
881,0.139051428276456
880,0.140176861567195
879,0.141437704235442
878,0.141152100990818
877,0.142937575298532
876,0.144434666219838
875,0.144223283924153
874,0.144596746330495
873,0.146985738689057
872,0.146936683949365
871,0.148727591417214
870,0.147909444511832
869,0.149055581403652
868,0.150394031722714
867,0.150990770822017
866,0.151954152609972
865,0.152956489298497
864,0.154465675211414
863,0.154914466786522
862,0.154340789481358
861,0.15620168483574
860,0.156366770230002
859,0.157097720619751
858,0.158298808999006
857,0.157911556635138
856,0.159719153261761
855,0.160332335515574
854,0.161448326056472
853,0.161136429868853
852,0.162316403932682
851,0.162449399367426
850,0.16421299829925
849,0.163808963689788
848,0.165476391055441
847,0.164968412832376
846,0.16746965119562
845,0.166424824932098
844,0.167996495685738
843,0.166869655220107
842,0.169225131138744
841,0.169077245307593
840,0.169110486571924
839,0.168676945251798
838,0.170153069009924
837,0.170228108424902
836,0.170929485941667
835,0.170862803678395
834,0.171629961095303
833,0.171778565104362
832,0.17228938021272
831,0.173109463252666
830,0.172810392385572
829,0.173659762576404
828,0.173384313520927
827,0.174083544745331
826,0.17402541924111
825,0.174258818588696
824,0.174867955984825
823,0.175130051499628
822,0.175660497268654
821,0.175073761410564
820,0.175982655113019
819,0.176080063518686
818,0.176429344876031
817,0.176235131209845
816,0.175928311571935
815,0.175007679260916
814,0.175901258787087
813,0.175872500070383
812,0.175673492266659
811,0.17524183975472
810,0.174997492813447
809,0.174914189808764
808,0.174441783437542
807,0.17444004276194
806,0.174858740785769
805,0.173718457036593
804,0.173936352362992
803,0.173494842715658
802,0.173019697232515
801,0.172913683091629
800,0.171808745694493
799,0.171953949415746
798,0.172326448166818
797,0.170896412100982
796,0.171325070813612
795,0.169924085519238
794,0.169282044298853
793,0.168238688278803
792,0.167285109725225
791,0.16786144801479
790,0.16737818889835
789,0.16550769049083
788,0.165425278546494
787,0.16318128277837
786,0.163344480796506
785,0.162363728333325
784,0.161333501492518
783,0.16017647890365
782,0.160151774607916
781,0.159289315827096
780,0.157654101106434
779,0.157457687320048
778,0.155710139218368
777,0.154338315030859
776,0.153559453369158
775,0.152471175074129
774,0.150758079092347
773,0.15055630137692
772,0.148445826582883
771,0.14781855351895
770,0.145934074019423
769,0.145745749153382
768,0.144302598872228
767,0.142042682000778
766,0.140863570509203
765,0.139137756697279
764,0.138559851070638
763,0.13702740405735
762,0.135589861618181
761,0.134647842715958
760,0.133246849273791
759,0.130653796824486
758,0.129591254978919
757,0.128415120331566
756,0.127541953780537
755,0.125717635898811
754,0.123486445175979
753,0.123021923405184
752,0.120822452717139
751,0.119223336304226
750,0.117912479847913
749,0.116112391891805
748,0.114577200267599
747,0.11269766206248
746,0.111977758083094
745,0.109688130156299
744,0.10830752879601
743,0.106709238613676
742,0.105254830063486
741,0.103484860006549
740,0.102169428450945
739,0.100311930815618
738,0.0992527816340239
737,0.0974217175360546
736,0.095462903016185
735,0.0940554817939238
734,0.0928876971661571
733,0.0911528551354521
732,0.0894891973420596
731,0.0882662324312042
730,0.0859632420400532
729,0.0850762735516772
728,0.0835864103343245
727,0.081765807419667
726,0.0803880268696699
725,0.0790336072277524
724,0.0777176683190006
723,0.0768977597788231
722,0.0751140945817257
721,0.0743475851954131
720,0.072863705998453
719,0.071515819882335
718,0.0699738973841852
717,0.0691508597349682
716,0.0679664864680468
715,0.0662536077999628
714,0.0650205998272921
713,0.0644205234924638
712,0.0634251908232475
711,0.0620808831927708
710,0.0605158561242955
709,0.0598710379406166
708,0.0591302307863875
707,0.0579415684094353
706,0.0571727708973177
705,0.0560375377806985
704,0.0555439523843456
703,0.0548745985567962
702,0.053747019027002
701,0.0530108144090385
700,0.0521941113834843
699,0.0513079113532196
698,0.0508146640469212
697,0.0500724576134145
696,0.0492127212562265
695,0.0490453541027341
694,0.0479523302701788
693,0.0475781629276723
692,0.04712081016791
691,0.0465514021097064
690,0.0458990638607444
689,0.0454168038118647
688,0.045297751831206
687,0.0445689792819177
686,0.0443971412549568
685,0.0442179480835226
684,0.0435626066721339
683,0.0436354721560655
682,0.042837137537898
681,0.042716191420253
680,0.042365084386222
679,0.0424637242701554
678,0.0421382348877108
677,0.0418678023321194
676,0.0416635497799179
675,0.0414339338189559
674,0.0415444396834762
673,0.0416672253060363
672,0.0412562435340947
671,0.0412027883882269
670,0.0415614167872497
669,0.0414170186501367
668,0.0414550644671631
667,0.0413784351664505
666,0.0414537544509926
665,0.0414214324774631
664,0.041759978529014
663,0.0419045192686738
662,0.0419373618916626
661,0.042298766226867
660,0.0421352684549666
659,0.0421383204581868
658,0.042417112991315
657,0.0425538212393597
656,0.042885994008615
655,0.0432374654057134
654,0.0435452363837814
653,0.043864050298925
652,0.0440394304388421
651,0.0446782487932649
650,0.0446764699672829
649,0.0451824378737074
648,0.0454776786209221
647,0.0458186547820179
646,0.0461421077181679
645,0.0469529780698525
644,0.0472352547286081
643,0.0478450084492226
642,0.0482921022214832
641,0.0488655946754292
640,0.049427604614086
639,0.0499642911921896
638,0.0505219969587605
637,0.0511994368273289
636,0.0519881839859052
635,0.0524582885020495
634,0.0530167807542834
633,0.0539905094773305
632,0.0545672667118326
631,0.055582461830169
630,0.0564562695784235
629,0.0573872577466884
628,0.0581657875530371
627,0.0590782964215178
626,0.0597999720676562
625,0.0610528445001547
624,0.0620753285585495
623,0.063037009600696
622,0.0643865063491232
621,0.0655985043355821
620,0.0665453371789677
619,0.0675433789461388
618,0.0692383790029211
617,0.0704635861552294
616,0.0720181593292037
615,0.0736627767279706
614,0.0748932269752455
613,0.076534586379017
612,0.078192059119654
611,0.0799189181794522
610,0.0815237609203075
609,0.0832685546877962
608,0.0852221489904372
607,0.0872505155700973
606,0.0892480864489314
605,0.0912601257845509
604,0.0933342221766785
603,0.095445133727931
602,0.0977420014008154
601,0.100347022657458
600,0.103008616721653
599,0.105551765449909
598,0.108248172496421
597,0.110754461986049
596,0.113697386197901
595,0.116895461269418
594,0.119619742408114
593,0.122740928052552
592,0.126311064096285
591,0.129629143219605
590,0.133028815445896
589,0.136426745120779
588,0.140110162529769
587,0.144113501008933
586,0.148134934835956
585,0.152316974172235
584,0.156078857505211
583,0.160542753904307
582,0.165078259062891
581,0.1696958348785
580,0.174416138189466
579,0.178906441450949
578,0.183560489555065
577,0.188627973486112
576,0.193731183135559
575,0.198830665310992
574,0.20398899870192
573,0.209009409136351
572,0.214310573627014
571,0.219921275539535
570,0.225027007266099
569,0.23077806190487
568,0.23664276480074
567,0.241762522286828
566,0.246788656096492
565,0.252349946526249
564,0.258177717080485
563,0.264088368817592
562,0.269556115875266
561,0.274396476787572
560,0.280067043306856
559,0.284999167434652
558,0.290152316572355
557,0.295681885748064
556,0.300196129545373
555,0.30492917759084
554,0.30989999078369
553,0.314346910405031
552,0.318891053597657
551,0.323113983090229
550,0.32706254252071
549,0.330408347942979
548,0.334036367623275
547,0.336884518644856
546,0.34023297925194
545,0.343180210582383
544,0.346270460152564
543,0.348137014499477
542,0.350588438302886
541,0.35178821118766
540,0.353932289538873
539,0.355559283074706
538,0.356601689803284
537,0.35727176613849
536,0.358208790358822
535,0.358573681168952
534,0.358623836259695
533,0.358526191380768
532,0.358063681416792
531,0.357361525749925
530,0.356605426102929
529,0.355949418772977
528,0.35468430208433
527,0.353184320661696
526,0.351582585297415
525,0.349810053994533
524,0.347871544589542
523,0.345531028854047
522,0.343562718376839
521,0.340923055815827
520,0.33805965979499
519,0.335500801293787
518,0.332682618331973
517,0.329743255485964
516,0.326368028024226
515,0.323174288485958
514,0.320005513464322
513,0.316750196944302
512,0.313238791708885
511,0.309733602469334
510,0.306322033024973
509,0.302448011738037
508,0.298742070080091
507,0.295308123365749
506,0.29156929147364
505,0.287804867838642
504,0.284426043979531
503,0.280715062438525
502,0.2769066998428
501,0.273367609435177
500,0.269997129419388
499,0.266367669370577
498,0.262983471441721
497,0.259789537262177
496,0.256654677997397
495,0.253500193596205
494,0.25013963337482
493,0.247035470347727
492,0.244547978041432
491,0.242040075476192
490,0.238977494364123
489,0.236576705212042
488,0.234356218686028
487,0.232248826773838
486,0.229800253267287
485,0.227642083815032
484,0.225951693431284
483,0.224572260908234
482,0.222399373811751
481,0.220990038286749
480,0.219348327307989
479,0.217763784012277
478,0.216576356556145
477,0.215205900288017
476,0.214070227089994
475,0.212892884204743
474,0.211722349183671
473,0.210794168140005
472,0.209923033885552
471,0.209145854820773
470,0.20823703955038
469,0.20753929731364
468,0.206756326004306
467,0.206317473807343
466,0.205769708133828
465,0.205148395982023
464,0.204663555264628
463,0.204417213844037
462,0.203746970770858
461,0.203425468964579
460,0.203153875415676
459,0.202882740704318
458,0.202548630584065
457,0.202341886032926
456,0.202069361387154
455,0.201858024103861
454,0.201794618249914
453,0.201539605162931
452,0.201482338415557
451,0.20140519874675
450,0.201211298687291
449,0.201210640430471
448,0.201290584790079
447,0.201127749185978
446,0.201314369328673
445,0.201219856116748
444,0.201189576738998
443,0.201151895027099
442,0.201387253595184
441,0.201450106033697
440,0.201530753231228
439,0.201577114652311
438,0.201759849898707
437,0.201851802587093
436,0.201863462853783
435,0.202017630296266
434,0.202240963112728
433,0.202384291379653
432,0.202555150971368
431,0.202963819631673
430,0.203017853118701
429,0.203068050798622
428,0.203351787077085
427,0.203624828309732
426,0.203806151050558
425,0.204067095665785
424,0.204269401457088
423,0.204679189517711
422,0.204916675419689
421,0.205200833530591
420,0.205461122090962
419,0.205727345093048
418,0.206192816889144
417,0.206407273930764
416,0.206726866500656
415,0.207040523226763
414,0.207473595767549
413,0.207879568250926
412,0.208281111686597
411,0.208345053505034
410,0.209016111024233
409,0.209270021196106
408,0.209713001381293
407,0.210432779677359
406,0.210504142260461
405,0.211007543620328
404,0.211411148560301
403,0.211909446521372
402,0.212336936198347
401,0.212942207583276
400,0.213167044369784
