1100,0.00987440604596172
1099,0.0132316688178927
1098,0.00544991490156108
1097,0.00807740254772527
1096,0.0101845064857668
1095,0.011178844379852
1094,0.00754351477480281
1093,0.00914321200725586
1092,0.00973013356801087
1091,0.011771238203758
1090,0.00698750107470534
1089,0.00875238877238602
1088,0.00605367567508984
1087,0.00778353415574289
1086,0.00975184154013702
1085,0.00930125305541092
1084,0.00979136871983025
1083,0.00995647925860364
1082,0.00843119411693785
1081,0.0108939921715183
1080,0.0107522198656168
1079,0.0068098941642214
1078,0.00888111812305373
1077,0.0111819785807748
1076,0.0112394340850639
1075,0.00853580382392153
1074,0.00827315270555975
1073,0.00938065224237091
1072,0.00978069893908048
1071,0.00924119755714669
1070,0.0109568783075701
1069,0.00985748484361217
1068,0.0115565987854599
1067,0.010596726949703
1066,0.0121050014953988
1065,0.010622669517975
1064,0.00990671439798265
1063,0.0103998208619067
1062,0.0106066475443493
1061,0.0122625265889852
1060,0.00950147159030204
1059,0.0101806109758987
1058,0.0105576303419276
1057,0.0103039327427474
1056,0.0105874697008059
1055,0.0117482322491798
1054,0.0114739037044342
1053,0.0111799068183087
1052,0.0116479511608751
1051,0.0115703695375291
1050,0.0116519928041155
1049,0.010683977593543
1048,0.0112101077184421
1047,0.0122593046990413
1046,0.0131459593566193
1045,0.0121113631560461
1044,0.0114978254457287
1043,0.0120598071078556
1042,0.0117747756436025
1041,0.0121800963273733
1040,0.0117835262764872
1039,0.0112170938018205
1038,0.0125655709543616
1037,0.0123518703308645
1036,0.0126902115957176
1035,0.0138086730868751
1034,0.0128918923216053
1033,0.0128184872923567
1032,0.0128883991022589
1031,0.0131304576770223
1030,0.013568987176749
1029,0.0121201205735556
1028,0.0127674337179219
1027,0.012775164683017
1026,0.0132517644239346
1025,0.0125270960151854
1024,0.0144726137390583
1023,0.0134643597559721
1022,0.0125512890001948
1021,0.0133412318457994
1020,0.0140432776655607
1019,0.0137464414161222
1018,0.0136996065422253
1017,0.014552910574847
1016,0.0142207653614422
1015,0.0149105455822872
1014,0.0148397182315374
1013,0.0143396213095089
1012,0.0147492721054236
1011,0.014982322294691
1010,0.0148708979869228
1009,0.0150884149415713
1008,0.0151880192987188
1007,0.0157583427800158
1006,0.0160087211350293
1005,0.0160113263656461
1004,0.0158756602942863
1003,0.0164227997462502
1002,0.0172540287177057
1001,0.0166300140938567
1000,0.016846315142155
999,0.0174716918523124
998,0.0177146205091453
997,0.0178639979750439
996,0.0175936244056638
995,0.0178978233689221
994,0.0176028974240063
993,0.0189482602491475
992,0.0187125862355923
991,0.0189210855246427
990,0.0201829736329822
989,0.0193952783080076
988,0.0200841963284873
987,0.0204458746331585
986,0.0211964190638886
985,0.0208803408854425
984,0.0217711820417944
983,0.021729977900255
982,0.0225780355478274
981,0.0225340283234616
980,0.0225344100274257
979,0.023098853579465
978,0.0236578538825628
977,0.0236106758884978
976,0.024462390210667
975,0.0246314214068491
974,0.0253670386337768
973,0.0248290776758823
972,0.0257661058103937
971,0.0255340338976394
970,0.0269602238013504
969,0.0263874967303441
968,0.0270662254701034
967,0.0278400938275564
966,0.028874824217893
965,0.0288647264111398
964,0.0294984658549084
963,0.0296019851980034
962,0.0302818744855991
961,0.0297766607539811
960,0.0306331213265336
959,0.030751748647897
958,0.0315688231282784
957,0.0320027232258545
956,0.0331207044585215
955,0.0332386998913359
954,0.0340324461885261
953,0.0328895844434595
952,0.0346785716450526
951,0.0347400627594627
950,0.0356882057113951
949,0.0355561136175096
948,0.0358596397153986
947,0.0366243411123177
946,0.036879916824471
945,0.0370850608868605
944,0.0383015942283629
943,0.0392173761565381
942,0.0399035311739687
941,0.0403829429474889
940,0.0414135160965036
939,0.0422340843876651
938,0.0431214964246576
937,0.0434653763374895
936,0.0446500753411203
935,0.0451365391426818
934,0.046414697336082
933,0.0466781193307663
932,0.0479144047437493
931,0.0483787578290154
930,0.0492990968064484
929,0.0503180233395479
928,0.0505575335188699
927,0.0523277128857605
926,0.0528379429821966
925,0.0543779901863822
924,0.0546721526193309
923,0.0567497785868679
922,0.058061356503019
921,0.0579051858787905
920,0.0592776146452363
919,0.0608315373654408
918,0.0615539573110981
917,0.0629549203696901
916,0.06378427680574
915,0.0655349537762431
914,0.0667522483854039
913,0.0679172984104517
912,0.0692089307316953
911,0.0708521575518054
910,0.0720301065064171
909,0.073042409372844
908,0.0749007627428117
907,0.0763991304900069
906,0.0782455864489869
905,0.0796140264969059
904,0.0804490220650728
903,0.0821710091754419
902,0.083798056207164
901,0.0859282837695516
900,0.0872428890194235
899,0.0890920494772403
898,0.0917531640957931
897,0.0930564252278917
896,0.0939864709345316
895,0.0959288402954899
894,0.0975826887440477
893,0.100022726802316
892,0.101528034498569
891,0.1036641980687
890,0.10630866565214
889,0.108539584473055
888,0.110572539958171
887,0.112284054212136
886,0.114025529910451
885,0.116741125560233
884,0.119118774313008
883,0.121309475010596
882,0.122638125064748
881,0.125367447200225
880,0.127976649279502
879,0.12964306431517
878,0.132791947770335
877,0.135274956654835
876,0.137564966692152
875,0.14020335100429
874,0.142647892514295
873,0.144776083404615
872,0.147977024724369
871,0.150285239222174
870,0.152915847805178
869,0.154968573388652
868,0.157901837858077
867,0.160942372455926
866,0.163570095867778
865,0.166443470690612
864,0.169441930295592
863,0.172728779270187
862,0.173622117345016
861,0.177297588208794
860,0.179779969432698
859,0.182685679151732
858,0.184865042839381
857,0.187715227028523
856,0.191410559945812
855,0.194072537756009
854,0.195511901026229
853,0.198943690506332
852,0.202437138856841
851,0.205152589092275
850,0.207459905718321
849,0.209298438203407
848,0.212527212211974
847,0.217890824023346
846,0.21952367701812
845,0.221410359106166
844,0.225080466565566
843,0.226327978401088
842,0.231524820931052
841,0.231754810761557
840,0.236203880151651
839,0.238525395635261
838,0.241024208415846
837,0.244113433128376
836,0.246186561041221
835,0.248554221633714
834,0.250500102952128
833,0.252660194600622
832,0.255187597073462
831,0.257747694610358
830,0.2605589716725
829,0.263149601069005
828,0.264513676217765
827,0.266498375497661
826,0.268552570414366
825,0.270941654088921
824,0.272904770188931
823,0.274324125956239
822,0.275379811626675
821,0.278131026508936
820,0.279689174244462
819,0.281246056500386
818,0.283329227869427
817,0.283960184567319
816,0.285379090142751
815,0.286814671675017
814,0.288258784692253
813,0.287695705145777
812,0.29148131034397
811,0.292157860743703
810,0.292885867449922
809,0.293509806505325
808,0.2945485047396
807,0.294417186669124
806,0.294205019789027
805,0.295691755552444
804,0.295939852803483
803,0.29614713544219
802,0.295416610134775
801,0.2972684310983
800,0.296523516687822
799,0.29654529317131
798,0.295678357219581
797,0.294778036968689
796,0.295214426509226
795,0.293947316831765
794,0.294926922783566
793,0.292797466826039
792,0.291797811625389
791,0.29178164405255
790,0.289513667244441
789,0.289580071675388
788,0.28726043199055
787,0.286567575144008
786,0.285244474328108
785,0.285571899102313
784,0.283739631008334
783,0.281510584521815
782,0.279996799777281
781,0.27741569742661
780,0.276880205379097
779,0.274792477530807
778,0.271746655536465
777,0.270713320729893
776,0.268539743510682
775,0.266506695361123
774,0.263194583699124
773,0.261946338343696
772,0.259381952271439
771,0.256176150409836
770,0.252894984065295
769,0.250923743292006
768,0.248262113383265
767,0.245697044033065
766,0.24294553561825
765,0.239904288762865
764,0.237391144597799
763,0.234661158152727
762,0.232236188930823
761,0.229094133088254
760,0.225718051949916
759,0.222877623075513
758,0.219765902177091
757,0.216881556927155
756,0.213858518668823
755,0.211175515920823
754,0.208181391278013
753,0.203673648072043
752,0.20083658284579
751,0.19755974712031
750,0.195330638868545
749,0.192088646276514
748,0.189212752158464
747,0.185767842108158
746,0.182645075320204
745,0.179350086296001
744,0.175632918128383
743,0.173250010556458
742,0.170242282715587
741,0.166699807587205
740,0.164187043290887
739,0.160472216054033
738,0.158496274816024
737,0.154692748217496
736,0.151590459534498
735,0.14905875565152
734,0.146153466798092
733,0.143140270321703
732,0.140667124205455
731,0.137090756259476
730,0.134535337070198
729,0.132354479587598
728,0.129544858597195
727,0.126662222716433
726,0.124148863347943
725,0.121676033961246
724,0.119049715897326
723,0.116888786707512
722,0.11438905515151
721,0.11166153465544
720,0.109144162491552
719,0.107200592815932
718,0.104664334642596
717,0.102789565904154
716,0.100353382541969
715,0.0986114870755608
714,0.0965440684487123
713,0.0945029201040607
712,0.0925554990178233
711,0.0903885168639111
710,0.0887570883797961
709,0.0867373038851134
708,0.0852185582036348
707,0.0833865039630761
706,0.0819712841549631
705,0.0802026640274226
704,0.0785745818848517
703,0.0769821256905969
702,0.0754601586255526
701,0.0740165261133452
700,0.0725434732622701
699,0.0716175539513054
698,0.0700740845290368
697,0.0689181679622423
696,0.0677192706906417
695,0.0664111511081154
694,0.0654616910102561
693,0.0644062017402024
692,0.0631558764479992
691,0.0618423368299018
690,0.0612092870126481
689,0.0601411170631271
688,0.0593085336287978
687,0.0584620242190943
686,0.0577390777184592
685,0.0570455819757759
684,0.0558016099759888
683,0.0552495518319623
682,0.0549572896546681
681,0.0539899525375398
680,0.0535446293846187
679,0.0530714175707299
678,0.0525933445768916
677,0.0520649575731818
676,0.0513370153321189
675,0.0508503991725855
674,0.0505416260412298
673,0.0500377740382569
672,0.0496417527483279
671,0.049442282039277
670,0.0489587971989593
669,0.0488270099919121
668,0.0483796837919753
667,0.048256143050853
666,0.0479853732722369
665,0.0477517556747244
664,0.0477850145933102
663,0.0476155969329027
662,0.0473647987243902
661,0.0472568138496793
660,0.0472504354707897
659,0.0472155725030912
658,0.0470150781946511
657,0.0471020852225181
656,0.0470604258365963
655,0.0470818320302267
654,0.0473803881734993
653,0.047101421641423
652,0.0473907237093546
651,0.0476377815697857
650,0.0476653695154794
649,0.0475843439376143
648,0.0479193186876992
647,0.0479845637898284
646,0.0483248238932013
645,0.0486273050454984
644,0.0488806586955005
643,0.04906497452041
642,0.0494902046756015
641,0.0497792450230549
640,0.0500439611062162
639,0.0504416578282702
638,0.0507737817806644
637,0.0513675197937446
636,0.0516316900457238
635,0.0519941946550779
634,0.0527566189654049
633,0.0532449086980345
632,0.0537679663220451
631,0.0543532582788456
630,0.0548267829681697
629,0.0557142258533522
628,0.0562019651075444
627,0.0569986483987945
626,0.0576145308887241
625,0.0583814761620491
624,0.059316337904433
623,0.0597850295113437
622,0.0607962220586026
621,0.0615905573237297
620,0.0628506179061501
619,0.0635902220206521
618,0.0644924396399146
617,0.0656135880460458
616,0.066549380298419
615,0.0678243254975609
614,0.0689314560760146
613,0.0702077033511578
612,0.0711501342604873
611,0.0726459073617917
610,0.0738031803477016
609,0.0749801884569341
608,0.076391136578929
607,0.0778332833243245
606,0.0793519820338005
605,0.0805898920206141
604,0.0820401940747215
603,0.0834372247869605
602,0.0846717193727204
601,0.0862899602303522
600,0.0878212728467043
599,0.0896380583949086
598,0.0908687271580264
597,0.0922272039530884
596,0.0935866359877071
595,0.0952786343825469
594,0.0965709033494748
593,0.0981600900353173
592,0.0996259267961302
591,0.101231222091257
590,0.102522635364849
589,0.103686842382127
588,0.105091023424481
587,0.106476504714415
586,0.107977169763902
585,0.109301148470268
584,0.110625101483977
583,0.111689353615002
582,0.112971258073645
581,0.114076625952978
580,0.115470282068903
579,0.116478785885022
578,0.117575889771348
577,0.118420251618583
576,0.119716547444362
575,0.120477417296742
574,0.121246911832813
573,0.122449613147841
572,0.123190986062115
571,0.123908593313809
570,0.125052131952161
569,0.125735546937273
568,0.126339595093842
567,0.127086326012952
566,0.127801996211312
565,0.128577559815202
564,0.129264039553561
563,0.129605000422668
562,0.130610993428384
561,0.131159468845557
560,0.131436471514614
559,0.131990516337193
558,0.132562199198105
557,0.133110895025172
556,0.133731635921198
555,0.134108694590966
554,0.134437077282574
553,0.134581916800893
552,0.135193527274209
551,0.135415479445042
550,0.135597961782134
549,0.135861210903663
548,0.136239557047655
547,0.136479943506207
546,0.13657310067852
545,0.136646562889941
544,0.136879866518816
543,0.136828924840307
542,0.137080818048001
541,0.137169276126168
540,0.13719675433319
539,0.136940748952764
538,0.13704486491825
537,0.136837296460734
536,0.136836906254501
535,0.136721420617621
534,0.136450703080772
533,0.136216673410732
532,0.135785758149021
531,0.135603975101991
530,0.135400028551283
529,0.13495604144386
528,0.134898614952248
527,0.134459620381783
526,0.133876169858367
525,0.133635635331314
524,0.133072947995977
523,0.132293639891299
522,0.131728024692556
521,0.131044572818503
520,0.130642221306924
519,0.130222319111099
518,0.129715363496532
517,0.128894122466016
516,0.127898105782873
515,0.127218568117678
514,0.126445217646699
513,0.125386656708984
512,0.124562207268209
511,0.123604588781841
510,0.122867937420084
509,0.121660139329057
508,0.120798999671039
507,0.119420233209816
506,0.118390264256861
505,0.117173580129877
504,0.115913574340423
503,0.114807236182558
502,0.113758669310526
501,0.112419174659419
500,0.111032919845719
499,0.110131861204009
498,0.108905130857592
497,0.107837451294337
496,0.106593517814408
495,0.105533116460423
494,0.104536314213402
493,0.103292461170775
492,0.102520930894141
491,0.101598483261721
490,0.100562658381266
489,0.0999294962227855
488,0.0990589638294388
487,0.0984889729039147
486,0.0976748982040591
485,0.0970035943937399
484,0.0966858272090606
483,0.0962947771250646
482,0.095661058870595
481,0.0951837737796169
480,0.0948662076668746
479,0.0943888940660543
478,0.0941478134228967
477,0.0938674714453209
476,0.0937360089780034
475,0.0934459171754771
474,0.0931960874972472
473,0.0929433874941671
472,0.0930151510197227
471,0.0928229104403255
470,0.0927664022520217
469,0.0929243743916609
468,0.0926769272960572
467,0.0926740754247526
466,0.0926432187338956
465,0.0925997411158644
464,0.0925933015440014
463,0.0926632769356983
462,0.0926352085287699
461,0.0926434430217655
460,0.0927466918229634
459,0.0927393847692358
458,0.0929240537731228
457,0.0930602738388397
456,0.0930958751070131
455,0.0930975429857345
454,0.0933832938263929
453,0.0934548411760697
452,0.0934152944813957
451,0.0936017283233637
450,0.0937018326842382
449,0.0939152858469293
448,0.0939164105770035
447,0.0940691438372481
446,0.0942893709749689
445,0.0943603922337617
444,0.0945062345139596
443,0.0947141275189393
442,0.094680968689712
441,0.0950020718959296
440,0.0951829680528436
439,0.0952103636017693
438,0.095504346014424
437,0.0955807921136634
436,0.095741308194751
435,0.0960042310058417
434,0.0959537323119595
433,0.0962566510466623
432,0.0964054909632188
431,0.0966677167601978
430,0.0968260146930783
429,0.0968699174940587
428,0.0972362922712139
427,0.0973252541297259
426,0.0975797396608695
425,0.0977433954418874
424,0.0977935514775243
423,0.0981119358179293
422,0.098216817620573
421,0.0984261377128993
420,0.0985244373971764
419,0.0987834939641444
418,0.09896828068913
417,0.0992121829942735
416,0.0995125335681026
415,0.0995877676301436
414,0.0998657029766288
413,0.100016111040332
412,0.10022039880717
411,0.100389586735574
410,0.100686477100722
409,0.100941144188783
408,0.101052101668589
407,0.101361900478129
406,0.101507824288867
405,0.101806102107189
404,0.101912436411702
403,0.102180760686902
402,0.10262157168506
401,0.102843785208886
400,0.103016000170016
