1100,0.00911685539379881
1099,0.00580818266522662
1098,0.00724927028997319
1097,0.00135353579468435
1096,0.00477210783676252
1095,0.00638057648618079
1094,0.00303796480655907
1093,0.00453510675209757
1092,0.00365876694530376
1091,0.00499693095427835
1090,0.0052664112622985
1089,0.00541507941399956
1088,0.00773480818529602
1087,0.00535726234201484
1086,0.00563249960139119
1085,0.0080113195337232
1084,0.0078770221583668
1083,0.00541355919299695
1082,0.0073185808167437
1081,0.00848905233954577
1080,0.00837722293413187
1079,0.00676908613492779
1078,0.00815370322647604
1077,0.00451457344454476
1076,0.00789394545345472
1075,0.00874995878837229
1074,0.00896675629396256
1073,0.00855188158426259
1072,0.00815248990651186
1071,0.0075871879022226
1070,0.00844573713286744
1069,0.00885829117437317
1068,0.00855922105532647
1067,0.00932986894405018
1066,0.00857625016198383
1065,0.00849369822457777
1064,0.00744667514082267
1063,0.00813618954523288
1062,0.00867260259913224
1061,0.0101378951600341
1060,0.00864986582743604
1059,0.00939041283784852
1058,0.00756129431775813
1057,0.0101702761190388
1056,0.00866243560286836
1055,0.00926745594087016
1054,0.00964762670082389
1053,0.00927951470341513
1052,0.0092666626129676
1051,0.0104276872631008
1050,0.0097351104218512
1049,0.00965172917439068
1048,0.0102691563289475
1047,0.0105772047300228
1046,0.00981225895035015
1045,0.00943260546926378
1044,0.0108962749196718
1043,0.0111684591808119
1042,0.011152098348016
1041,0.0122047225928813
1040,0.0101483882342114
1039,0.0114549533047696
1038,0.0114545546376408
1037,0.0115150233338905
1036,0.010466851726452
1035,0.0112966049419527
1034,0.0113205966278205
1033,0.0118635402392804
1032,0.0121253910801548
1031,0.0121084884191921
1030,0.0115611978490745
1029,0.0119900551556658
1028,0.011295143697151
1027,0.0128111554700555
1026,0.0128973588662842
1025,0.0129058121464522
1024,0.0132035418685178
1023,0.0126005583975285
1022,0.0131345398212506
1021,0.0128760530636023
1020,0.0128568814011939
1019,0.0130263092759686
1018,0.0123607391327504
1017,0.0134015099692369
1016,0.0131963102812358
1015,0.0138672254923824
1014,0.0140019447047799
1013,0.014735319849475
1012,0.014021166983119
1011,0.0144577069271772
1010,0.0141711781008546
1009,0.0146388178602606
1008,0.0150229179604546
1007,0.0146165965217703
1006,0.0145130011917629
1005,0.0152363018586835
1004,0.015741137086412
1003,0.0163199553204969
1002,0.014817218767654
1001,0.0160019798376236
1000,0.015772999025445
999,0.0157003131992995
998,0.016345059370939
997,0.0165383876673723
996,0.0166634476270741
995,0.0165519139217685
994,0.0169098807795564
993,0.0172520085905933
992,0.0169579514064442
991,0.0174491364650814
990,0.0179462193028551
989,0.0177463579107412
988,0.0175606043638907
987,0.01843979340369
986,0.0182949697193286
985,0.018745612900551
984,0.0195256313468359
983,0.0184481121730713
982,0.0197369594784604
981,0.0190095110126995
980,0.0195263082560002
979,0.019871750775955
978,0.0199287414684153
977,0.0203589738325584
976,0.0201888852574558
975,0.0203250104656948
974,0.0216548189877565
973,0.0219009979231295
972,0.0217721618443956
971,0.0218966147452294
970,0.0219210358711903
969,0.021844074503239
968,0.022644545633284
967,0.0231528564141739
966,0.0232834137539958
965,0.0232411100792028
964,0.0245297373274016
963,0.0240298265360622
962,0.0243400746814076
961,0.0244604458170707
960,0.0249586868561574
959,0.0257931079103118
958,0.0263180457199154
957,0.0266515944795264
956,0.0267280086104488
955,0.0265685066186093
954,0.0274673541544417
953,0.0277683129157957
952,0.0280117427370037
951,0.0281432996541103
950,0.0297851718150584
949,0.029382673132346
948,0.0304200347032964
947,0.0302778777374403
946,0.0313220007820008
945,0.0310873866379049
944,0.0317930022430303
943,0.0326785696838327
942,0.0330075170904126
941,0.0339790329974307
940,0.0337354256323061
939,0.0344154050653353
938,0.0357012456972894
937,0.0361934822620272
936,0.0363881687428864
935,0.0367037134974191
934,0.0374717098787356
933,0.0389810074694937
932,0.0394878921678466
931,0.0402224081289
930,0.0405141245167945
929,0.0410197586235241
928,0.0421453943425086
927,0.0428344234506712
926,0.0438268237133483
925,0.0446753223414837
924,0.0444722116555716
923,0.0465239136472979
922,0.0470717057882581
921,0.0481977121325069
920,0.0495103093899511
919,0.0500676354430473
918,0.0513799319644643
917,0.0522365581054361
916,0.0529966885360319
915,0.0539893076607796
914,0.0551869097626833
913,0.0560998019312897
912,0.0572040128719092
911,0.0583201867307035
910,0.0597604927508484
909,0.0607533175269267
908,0.0618381283645052
907,0.0640739615954475
906,0.0651114105982529
905,0.0663485672438656
904,0.0669143816074839
903,0.0685634225271888
902,0.0704763735974864
901,0.0711779151928423
900,0.0731349745350491
899,0.0748210747759478
898,0.0766745009739047
897,0.0778369064664625
896,0.0797268506627051
895,0.0811779198193494
894,0.0826294387191283
893,0.0844933556216858
892,0.0867538669722923
891,0.0881814219270678
890,0.0896469044918168
889,0.091949058313047
888,0.0939648731422293
887,0.0967639371720559
886,0.0992136468215792
885,0.10103766285309
884,0.102446202985389
883,0.104738193279293
882,0.107075863763591
881,0.108585252638575
880,0.110653455291307
879,0.113156270521296
878,0.116258553782572
877,0.118877526320528
876,0.120806315791481
875,0.12405354537938
874,0.12698457002578
873,0.128821681263376
872,0.132571296883771
871,0.135066960346208
870,0.136989432657222
869,0.139366907970657
868,0.142924264716097
867,0.145920961066459
866,0.148684828370733
865,0.150521228718192
864,0.154510156649344
863,0.157232101544798
862,0.160800766028057
861,0.162645712589145
860,0.16691888506344
859,0.170555997716927
858,0.17295604709293
857,0.177066325334324
856,0.181448731055856
855,0.183135610737682
854,0.187049424911985
853,0.190301579596245
852,0.192975518696162
851,0.196906432161182
850,0.199904609727133
849,0.204089500409398
848,0.207797733549616
847,0.210538861161046
846,0.213931547896812
845,0.218883973404321
844,0.220853350460308
843,0.225683447472616
842,0.229595978144623
841,0.233499049534625
840,0.237001626018468
839,0.241035571463973
838,0.245043436905847
837,0.248137789647798
836,0.252421736212294
835,0.255767322777168
834,0.258288714369102
833,0.26275027613352
832,0.2661633704602
831,0.271376002229954
830,0.274302656729823
829,0.278653066311932
828,0.281030040913537
827,0.284364607995677
826,0.288521634169882
825,0.292338479388868
824,0.295458162174449
823,0.297738210392278
822,0.30136097031051
821,0.305043386728894
820,0.308531132211589
819,0.312244406583988
818,0.314347951394792
817,0.317185896536752
816,0.319921528915859
815,0.323622237717755
814,0.326266864254939
813,0.330207060450891
812,0.331991824716554
811,0.335552985729252
810,0.337580103770626
809,0.339730586655228
808,0.34197158038104
807,0.344496545045288
806,0.346930037759023
805,0.349250356075867
804,0.350469435001149
803,0.353279749881825
802,0.354902420572361
801,0.357403671428976
800,0.358489521115018
799,0.359904589006567
798,0.360948070634018
797,0.363227901051761
796,0.363792637193994
795,0.364671075992754
794,0.365166154164854
793,0.366765627483634
792,0.368187237427741
791,0.368531098616124
790,0.369299845824767
789,0.36926688889987
788,0.369297876820589
787,0.369762870180118
786,0.369698586458966
785,0.371005748155641
784,0.370339574871406
783,0.37023300662344
782,0.369195561473214
781,0.36845898490525
780,0.369145351567922
779,0.368202586885715
778,0.367059299385214
777,0.366204293323712
776,0.363985903526088
775,0.363537992060468
774,0.361089004220778
773,0.359472858752093
772,0.358676421092353
771,0.356405858560057
770,0.355075293920096
769,0.353690314182576
768,0.351027715652904
767,0.34953927587009
766,0.347147346691157
765,0.344148032937383
764,0.342155487820739
763,0.340180654385111
762,0.336766653643124
761,0.334491557700042
760,0.332835531517625
759,0.32884817587515
758,0.325746190262031
757,0.323490906601217
756,0.320007595708707
755,0.316601259763456
754,0.313650620485443
753,0.311100566296706
752,0.307661277865411
751,0.303847431763023
750,0.300165540427219
749,0.295622927288383
748,0.293051438401821
747,0.289308769970729
746,0.286188362912927
745,0.282088692949953
744,0.278089135238901
743,0.274505902321958
742,0.27029323642824
741,0.26686622743161
740,0.263326046989542
739,0.259545627377632
738,0.255307618250166
737,0.251431891126946
736,0.24844068472366
735,0.243776465009024
734,0.240608804589277
733,0.236262657920189
732,0.232408554846727
731,0.22814912522694
730,0.224810586091752
729,0.220789778372482
728,0.216846412569362
727,0.213813072222157
726,0.20930925224328
725,0.20538098792938
724,0.202370183304686
723,0.198629976908245
722,0.194442270325623
721,0.19087102148006
720,0.187187387299984
719,0.183982146668687
718,0.180496368427652
717,0.176986165302593
716,0.17356096527909
715,0.170257874969677
714,0.166565618307569
713,0.163540406947807
712,0.160257713540772
711,0.156982256870337
710,0.153612654002178
709,0.150273055280926
708,0.147951294238411
707,0.144973638550451
706,0.141705666078883
705,0.1389274748444
704,0.136356261095039
703,0.133642748366822
702,0.130578019505762
701,0.127928895921059
700,0.125406143481682
699,0.123456862700005
698,0.120833324966989
697,0.118538045151019
696,0.116167725344866
695,0.113942099427777
694,0.111614437302517
693,0.109550458663746
692,0.107305008471167
691,0.105559456328352
690,0.103302574930922
689,0.101421826954696
688,0.100175243166384
687,0.0983117587891988
686,0.0961335072937246
685,0.0947246873669287
684,0.0931067485085313
683,0.0915235127089811
682,0.090135469627587
681,0.0886761824275506
680,0.0872426358582123
679,0.0859421342278679
678,0.0849972466607366
677,0.0837228085675818
676,0.0826873675210519
675,0.081419180343581
674,0.0802557858132866
673,0.0794536414871981
672,0.0784046576461766
671,0.0776455715963155
670,0.076758638180193
669,0.0759764883712904
668,0.0751091708313073
667,0.0746656776340683
666,0.0740875009265417
665,0.0732360774972897
664,0.0728325414874375
663,0.0722766706131841
662,0.0717262736654182
661,0.0713480854967013
660,0.0709177101272737
659,0.0706417917845241
658,0.0702761411121259
657,0.0699552251043353
656,0.0697544727913602
655,0.0695251334486761
654,0.0693525175100965
653,0.0690027273502328
652,0.0691958466250834
651,0.0689762685347178
650,0.0689517227493386
649,0.0687518279011089
648,0.0688533714793903
647,0.0689774518647386
646,0.0691204764896029
645,0.0691860717493216
644,0.0691070004858285
643,0.0693252478556546
642,0.0693630857207388
641,0.0694837273129461
640,0.0697833197162647
639,0.0700914842878575
638,0.0702658245476587
637,0.0706525741701572
636,0.0710793634280192
635,0.0712253695014376
634,0.0719395789268569
633,0.0722254940695512
632,0.0724094703803303
631,0.0731766996325184
630,0.073752099712054
629,0.0738978718185038
628,0.0746065035915434
627,0.0751803244500278
626,0.0758235747683731
625,0.0763671248659726
624,0.0772968655014275
623,0.0780033248766941
622,0.0787001681927166
621,0.0793246054900963
620,0.0803651636667709
619,0.0809008650246247
618,0.0819106374645434
617,0.0828093250755906
616,0.0836629211411662
615,0.0848806531600723
614,0.0856688349653062
613,0.086737051018449
612,0.0876419595646689
611,0.0887577870054577
610,0.0899277821855862
609,0.0911078342665599
608,0.0923410479912982
607,0.0936440538837226
606,0.0950394436224603
605,0.09609991694855
604,0.097447634795631
603,0.0986074915030543
602,0.100294842506602
601,0.101593936780248
600,0.102979609188769
599,0.104298883046666
598,0.105677246108439
597,0.107283102630204
596,0.108688971113009
595,0.110165420360535
594,0.111692165738965
593,0.112988751792538
592,0.1145936803248
591,0.116001272768676
590,0.117534525695239
589,0.11905499364312
588,0.120606431737421
587,0.121969983956787
586,0.123576477735889
585,0.125026895906403
584,0.12633543997759
583,0.127922814174485
582,0.129175225136298
581,0.130619980392872
580,0.13201872127087
579,0.134045035706183
578,0.135019162836141
577,0.136432557285508
576,0.137693294576036
575,0.138814817358258
574,0.140264808430928
573,0.141167507089486
572,0.142550979134821
571,0.143709603178677
570,0.144832735357173
569,0.145994101623757
568,0.147578755196855
567,0.148274874137654
566,0.149113305260041
565,0.150262591267897
564,0.151463389300467
563,0.153124359816065
562,0.153814602896328
561,0.154799877724998
560,0.156113973971733
559,0.157191243857493
558,0.157817245275639
557,0.158904501309599
556,0.15994498739832
555,0.161060881944473
554,0.16176326405196
553,0.163074477641626
552,0.163414506230989
551,0.16459142995393
550,0.165365800101367
549,0.166216775866265
548,0.167131530849928
547,0.167896692016854
546,0.168522262951849
545,0.168964511415266
544,0.16970111497642
543,0.170272893099921
542,0.17112706059251
541,0.1712071446044
540,0.171983642171878
539,0.172278025657303
538,0.172634661939353
537,0.172787001223225
536,0.172922278910576
535,0.173236354954156
534,0.173317484791878
533,0.173380802055754
532,0.173130827830995
531,0.173216103792143
530,0.173098627108348
529,0.172952500539423
528,0.172695105806518
527,0.172226029435022
526,0.171979911234786
525,0.171636340874591
524,0.171194474530009
523,0.170574208269664
522,0.17005234735079
521,0.169449119284101
520,0.168812781356999
519,0.168035333476156
518,0.167253948261734
517,0.166266045634385
516,0.16543899384051
515,0.164621379897041
514,0.163380491389489
513,0.162528463479613
512,0.161354332070252
511,0.16011097816581
510,0.158802548632436
509,0.157399959526894
508,0.156053347006091
507,0.154683988277534
506,0.15322985060326
505,0.151745210315744
504,0.150189350235279
503,0.14848076846707
502,0.147126506807135
501,0.145338015997297
500,0.143824763391782
499,0.142249736779709
498,0.140645330155846
497,0.139345749930472
496,0.137709289354199
495,0.136104858489548
494,0.134762531067984
493,0.133163934983188
492,0.1321079086241
491,0.130937055991287
490,0.129652135945899
489,0.128590229029826
488,0.127597165477931
487,0.126725952175417
486,0.125637045365657
485,0.124744152239134
484,0.124214878220693
483,0.123637897737456
482,0.122773758715381
481,0.122130715963137
480,0.121523688663819
479,0.121152399660678
478,0.120662477491614
477,0.120082890126644
476,0.119885522053147
475,0.11960218410235
474,0.119304823555788
473,0.119171528991973
472,0.118490536236045
471,0.118449084957432
470,0.118318330229549
469,0.118303067877907
468,0.118144357616755
467,0.118070154131388
466,0.117932245437008
465,0.118081908966612
464,0.117926370004711
463,0.117958770776881
462,0.117868672727977
461,0.117954729039168
460,0.117995691584341
459,0.117977791224067
458,0.118059045085323
457,0.118220171064862
456,0.118255516684403
455,0.118401347779723
454,0.118382818736224
453,0.118481592762466
452,0.11865923852553
451,0.118751474276596
450,0.118979068379436
449,0.119003308545871
448,0.119241492465792
447,0.119381112477482
446,0.119489316488103
445,0.119636176261681
444,0.120007535712655
443,0.119986651748881
442,0.120156243551738
441,0.12036025783395
440,0.120466553953023
439,0.120706874963661
438,0.120943977555628
437,0.120979579762829
436,0.121192809480813
435,0.121371088698156
434,0.121445310568199
433,0.121797455259409
432,0.122033782780494
431,0.122134453827158
430,0.122455515776019
429,0.122602764264527
428,0.122736875904314
427,0.1229834733294
426,0.12325152642603
425,0.123486651572424
424,0.123402346787433
423,0.124084580845282
422,0.124131809988307
421,0.124300512668805
420,0.124589657967709
419,0.124759642639895
418,0.125068600039452
417,0.125238461465534
416,0.12555985704558
415,0.125881629006122
414,0.126047379597996
413,0.126302200478649
412,0.126644342721159
411,0.127056393266248
410,0.12710692982067
409,0.127370356192957
408,0.12770754046356
407,0.127946724617506
406,0.128312113402782
405,0.128502213468064
404,0.1288168406714
403,0.129209800646735
402,0.129363506768793
401,0.129583614933065
400,0.129900004336872
