1100,0.0137574495468108
1099,0.0108792873140333
1098,0.00938927541299129
1097,0.0152618259581037
1096,0.0087630861462929
1095,0.00825439421929914
1094,0.0168236307595912
1093,0.0115321155729222
1092,0.012914905606294
1091,0.0123954170876619
1090,0.0130052638749745
1089,0.0146167571538723
1088,0.0119982246830103
1087,0.0112734115820458
1086,0.0118996949998311
1085,0.0138589405557278
1084,0.0119598797972456
1083,0.0125146536721474
1082,0.0127537849017157
1081,0.0130471156178548
1080,0.0111041614694522
1079,0.0157238515533544
1078,0.0155849480878809
1077,0.0126362682147191
1076,0.0125205151169636
1075,0.0156342140164751
1074,0.0149200026041891
1073,0.0117849093713773
1072,0.0130541046383945
1071,0.0121024462102419
1070,0.0157042853748146
1069,0.0141215965014388
1068,0.0139430533681767
1067,0.0132531788907293
1066,0.0152867884768201
1065,0.0139214823712022
1064,0.0161421451504832
1063,0.0154947758622571
1062,0.0147299104581531
1061,0.0153250796397801
1060,0.0148207007513034
1059,0.0146790601176783
1058,0.0140966206443843
1057,0.016148996090521
1056,0.0157531622108438
1055,0.0148825775781282
1054,0.0157035070402639
1053,0.0160931439304012
1052,0.0158580472223663
1051,0.0160742326574583
1050,0.0164668910670383
1049,0.0157393655560411
1048,0.0166501868751097
1047,0.0158221789064319
1046,0.0159797960677902
1045,0.0163515372040675
1044,0.0170686202003101
1043,0.0155255197779646
1042,0.0181127058089681
1041,0.0165758480879957
1040,0.0187607757377106
1039,0.0172825000419281
1038,0.0179487012910013
1037,0.0174303816229003
1036,0.0177744300518837
1035,0.0178622717098098
1034,0.0179382068944516
1033,0.0189336316538111
1032,0.0179353742601819
1031,0.0177162922600283
1030,0.01781393906889
1029,0.0186386772269141
1028,0.0182440242212865
1027,0.0189830896459567
1026,0.0193909474144412
1025,0.0190624397113406
1024,0.0192546546074569
1023,0.0190498898605986
1022,0.0191287652037988
1021,0.0199211260166978
1020,0.0192823914361148
1019,0.0200660050996878
1018,0.0196083574607515
1017,0.0201132876117588
1016,0.0198721572451416
1015,0.0199944675531534
1014,0.0202988073188545
1013,0.0206100650317875
1012,0.0201561825087669
1011,0.0213158675389995
1010,0.0209961977361044
1009,0.0208574176591744
1008,0.0210604552452238
1007,0.0215048937726514
1006,0.0217451364330507
1005,0.022578062815148
1004,0.0221769276887106
1003,0.0216747639482973
1002,0.0222008741967084
1001,0.0225220593479222
1000,0.0226725543627572
999,0.0227931188823408
998,0.0231360378245201
997,0.0228295675969003
996,0.0234462216598967
995,0.0232871554652236
994,0.0241560502070855
993,0.0242950946697889
992,0.0248019435946689
991,0.0249617850108232
990,0.0246440513988978
989,0.0251555869815931
988,0.024716304205647
987,0.0261003028573607
986,0.0261017323067274
985,0.0265928065907388
984,0.0266069799089459
983,0.0262805605421965
982,0.0272826615958365
981,0.0269282741109982
980,0.0282493695086398
979,0.027872690307598
978,0.0284115904708973
977,0.029126709044753
976,0.0288749072145377
975,0.0294162166035695
974,0.0309153519250797
973,0.0300630511437142
972,0.0306375657941032
971,0.031096702032728
970,0.0315208057627301
969,0.0318838373293361
968,0.0319423149817813
967,0.0324254258705649
966,0.033265248391728
965,0.0340855299557592
964,0.0341075941054294
963,0.0341853595700997
962,0.0353822718664347
961,0.0353607606633101
960,0.0358847744405851
959,0.0363963599832247
958,0.0359981518163801
957,0.0372068458226115
956,0.0375962001538422
955,0.0379185278954042
954,0.0380773654531761
953,0.0382682620921041
952,0.0386707369905304
951,0.0395075391280563
950,0.0400372930236111
949,0.0409751226717786
948,0.0413316839810067
947,0.0415871115857945
946,0.0422988232949397
945,0.0424879309984316
944,0.0433465719938537
943,0.04479655707633
942,0.0448813410670672
941,0.0453922321207082
940,0.0458161233604466
939,0.0471904948306504
938,0.0480717652819652
937,0.0484219908304188
936,0.049786270285274
935,0.0505174605859111
934,0.0509005438872138
933,0.0514642333924089
932,0.0519747915804638
931,0.0534413327977223
930,0.0546215999097328
929,0.0555006517232283
928,0.0564500789193963
927,0.0569841560989919
926,0.0583994205019827
925,0.0591452101552036
924,0.0606079023984449
923,0.0620840487687851
922,0.0626862861411191
921,0.0642125291611354
920,0.0652413451158625
919,0.0666648061126419
918,0.0679458116703782
917,0.0690510067055014
916,0.0700103319289827
915,0.0711367475960677
914,0.0736969148341912
913,0.0744690664881431
912,0.0764716997106637
911,0.0769914903902233
910,0.079165600850179
909,0.0806458663148725
908,0.0822504931967296
907,0.0844528243320431
906,0.0861333724904266
905,0.0877336978885043
904,0.0891623211582687
903,0.0908652170209829
902,0.0930992750204172
901,0.094847689874568
900,0.0970585203105442
899,0.0992340433286946
898,0.100679100510759
897,0.103674090431946
896,0.10597575910663
895,0.10781070746843
894,0.110235415892236
893,0.112913644588155
892,0.114766101238162
891,0.11724369717213
890,0.120648602076377
889,0.123264660089124
888,0.125196810089016
887,0.129353953022412
886,0.13103809725631
885,0.134831803523947
884,0.137545068782249
883,0.140161240348832
882,0.143033351570646
881,0.145689340021909
880,0.149009940473591
879,0.152721270456548
878,0.156129660491458
877,0.159863137942741
876,0.163528147185408
875,0.167239452665233
874,0.170319176726859
873,0.174083080947222
872,0.178632762025436
871,0.183404798494518
870,0.185732785052962
869,0.190263587174499
868,0.19325414898971
867,0.19768129725358
866,0.201541993156803
865,0.206682326859157
864,0.21078882668427
863,0.215989285107954
862,0.219453005185202
861,0.225221404648413
860,0.230329794960082
859,0.233870756393309
858,0.238683412964428
857,0.244498522317815
856,0.248567526891322
855,0.254156391484484
854,0.258509573560338
853,0.265628013850358
852,0.270418422959448
851,0.274390438975959
850,0.280000153844831
849,0.286132280027573
848,0.291034285069337
847,0.296876994299279
846,0.301873998892519
845,0.307014798579436
844,0.31435462446534
843,0.320212786300973
842,0.326694590796629
841,0.331369549541397
840,0.336961866486974
839,0.343276633338498
838,0.34900134775777
837,0.355431809612627
836,0.362056086687945
835,0.367761053452954
834,0.372967161187668
833,0.378381886759663
832,0.384256847691563
831,0.391815284969831
830,0.397937737184258
829,0.405141843296085
828,0.40937958033542
827,0.415403218537301
826,0.421994629668354
825,0.428499004373994
824,0.433975446235189
823,0.438598195852603
822,0.443993150010746
821,0.449846626473101
820,0.45604994512764
819,0.462101267481987
818,0.467788476597132
817,0.47216845753687
816,0.478594461882422
815,0.484616557671048
814,0.491628528105083
813,0.495140860531967
812,0.499765582181034
811,0.505714369076854
810,0.509257794849745
809,0.514996961227717
808,0.519879262149954
807,0.52588897496107
806,0.529692452246255
805,0.534125157065525
804,0.539212336525284
803,0.540728663604814
802,0.545315077509488
801,0.550123498420575
800,0.553900095669093
799,0.556673112948901
798,0.561721003319095
797,0.566167733797941
796,0.568546346052536
795,0.572132975300816
794,0.573905020797147
793,0.575625085334883
792,0.579413683219403
791,0.581987066580542
790,0.582765600326887
789,0.584016598120379
788,0.585144116533913
787,0.589251731725348
786,0.589747801990746
785,0.590590704634316
784,0.592658812402378
783,0.593546325890354
782,0.592542657055027
781,0.592435444825475
780,0.595041392777563
779,0.594223525765694
778,0.594948891995312
777,0.592606936310539
776,0.591993505546101
775,0.591260984839571
774,0.5911133465682
773,0.58907588180903
772,0.589036891872551
771,0.586999021171063
770,0.583971852201017
769,0.582832460457114
768,0.582152650982322
767,0.579263287237881
766,0.575846501095355
765,0.573813566299826
764,0.571990586335422
763,0.568205574621853
762,0.56635128391036
761,0.561797865895551
760,0.55753091552377
759,0.553903571010833
758,0.550158503445551
757,0.546658358102333
756,0.542735068573737
755,0.538620839711927
754,0.534715346548736
753,0.528412706728019
752,0.523754296869848
751,0.519669451488428
750,0.514895418542773
749,0.509302116940704
748,0.504246649076414
747,0.498910645120955
746,0.492845106273017
745,0.487493568875406
744,0.482815909359314
743,0.476238896547556
742,0.470099408630244
741,0.464379793019846
740,0.458509779285968
739,0.452830277671792
738,0.446691821694908
737,0.440911900538594
736,0.433839164540861
735,0.428148441843448
734,0.420757046678271
733,0.415233074824526
732,0.40850104059734
731,0.402345281480723
730,0.395318691220775
729,0.389603225787762
728,0.382915064020859
727,0.376153784042479
726,0.369691158057341
725,0.363706592539362
724,0.357380682369745
723,0.350419458696108
722,0.344239867022864
721,0.337736300697435
720,0.331293663039178
719,0.325610133761893
718,0.319004596808006
717,0.312688582808868
716,0.307346585366292
715,0.30040778051976
714,0.29492442136616
713,0.288997652138258
712,0.283195742733738
711,0.277155415216197
710,0.270782947750137
709,0.265484116825123
708,0.259787230255353
707,0.255097835833004
706,0.248736355538962
705,0.243556983974154
704,0.23796647405982
703,0.232549990182571
702,0.227831575400954
701,0.222469965104707
700,0.217599012231223
699,0.212937811784899
698,0.208534508697966
697,0.203768821011974
696,0.199422429843392
695,0.194492458695041
694,0.190101424589006
693,0.185464928242404
692,0.181587363464458
691,0.177193600048136
690,0.173564980049618
689,0.169284108448842
688,0.16605253307417
687,0.161866365160775
686,0.158710058107423
685,0.155224700397445
684,0.151622168675111
683,0.148559917311502
682,0.14496908441103
681,0.142556981672114
680,0.139270830925625
679,0.136310128424683
678,0.133452743565304
677,0.130988501152017
676,0.128310756838252
675,0.126008280144375
674,0.123430068219677
673,0.120978451117806
672,0.118855199102291
671,0.116788951570245
670,0.114575279320032
669,0.112603180408749
668,0.110705492182415
667,0.109108751955567
666,0.107159476307167
665,0.105636537675589
664,0.103912922992747
663,0.10257285469614
662,0.101081144088416
661,0.0996764961124671
660,0.0983711035027048
659,0.0972209111984499
658,0.0961963669769423
657,0.095128858863844
656,0.0940939294882366
655,0.092783453296034
654,0.0920675972297744
653,0.0911275981726014
652,0.0904058573194416
651,0.0895646554699025
650,0.0888060901681815
649,0.0884498655387068
648,0.0877066432050766
647,0.0870869380263204
646,0.0868873746113319
645,0.0864148920665021
644,0.0859335525706594
643,0.0857687040908746
642,0.0854725378290568
641,0.0852522623710406
640,0.0852137705340808
639,0.084801284240996
638,0.0847890434585166
637,0.0847536132152617
636,0.0847443313469259
635,0.0851330180613322
634,0.0852843310071748
633,0.0854296145789427
632,0.0857606935317396
631,0.0859445320741627
630,0.0863166426017959
629,0.086741191728613
628,0.0871507480867991
627,0.0875045467242654
626,0.088277175905309
625,0.088808821473953
624,0.0894832808593634
623,0.0901375721705158
622,0.0910835057820315
621,0.0919302486335793
620,0.0926304024766095
619,0.0936053569844009
618,0.0943462385200383
617,0.0956836769019177
616,0.0963404682075576
615,0.097780841707891
614,0.0986758760854065
613,0.100046420530388
612,0.100970113866524
611,0.102580886394142
610,0.103593610601938
609,0.10483513121007
608,0.106373313216342
607,0.107413161969889
606,0.108761089996976
605,0.110191875877395
604,0.111588564384638
603,0.11292539496999
602,0.114265073534668
601,0.115749516975965
600,0.117135169741361
599,0.118502608517186
598,0.119915032840737
597,0.121086438109004
596,0.122291061515057
595,0.123864831362552
594,0.12501070556306
593,0.126307116994214
592,0.127699065115462
591,0.128877404192889
590,0.130034922057246
589,0.131412718501737
588,0.132713863892157
587,0.133825614498244
586,0.135182324860594
585,0.13619269293651
584,0.137161856598344
583,0.13857114094668
582,0.139656552054029
581,0.14039958759209
580,0.141679658789847
579,0.142419411418092
578,0.143803711482015
577,0.144905765134864
576,0.145527249807399
575,0.146885783260214
574,0.147985686815095
573,0.148831472482717
572,0.14992341574798
571,0.150880253268274
570,0.151852533142103
569,0.153263374339888
568,0.154038161683755
567,0.155123903812138
566,0.156584147982381
565,0.157020419315822
564,0.159026973188766
563,0.160136952704978
562,0.161188991067524
561,0.162392960686605
560,0.16339229446392
559,0.165110627741716
558,0.166642395943476
557,0.167554888710291
556,0.168779753774178
555,0.17007034532477
554,0.171194397742806
553,0.172386849149905
552,0.173984110031541
551,0.175291407776097
550,0.176778207340935
549,0.177817746892162
548,0.179435418474398
547,0.180429965910877
546,0.181719982435065
545,0.182805936067401
544,0.184196985973567
543,0.185301255360944
542,0.186104819989431
541,0.18720662745441
540,0.18803787459905
539,0.18902749903946
538,0.190103549999264
537,0.190699074446272
536,0.191320027301998
535,0.192350180495036
534,0.192914203651344
533,0.193274023370395
532,0.193811501526831
531,0.194401281384091
530,0.194731449467068
529,0.195020050672756
528,0.195291960458294
527,0.195361121343973
526,0.195568507668306
525,0.195615577201747
524,0.195633894680361
523,0.195484209503029
522,0.195605058200729
521,0.195126895538577
520,0.194846210147156
519,0.194568137032828
518,0.194273519538195
517,0.193485426723498
516,0.193015283243836
515,0.192240550679381
514,0.191291355193171
513,0.190652695349742
512,0.189649229524214
511,0.188573143380188
510,0.187503822805091
509,0.186268875547748
508,0.18472603371107
507,0.183388805998885
506,0.181694847793947
505,0.180083723463444
504,0.178588005185407
503,0.177007021051918
502,0.17519433107398
501,0.17339778083193
500,0.171539347602798
499,0.169902992946599
498,0.168033694519815
497,0.16646925708101
496,0.164902980092692
495,0.163059744061692
494,0.161502914968919
493,0.159869758646104
492,0.158774900146892
491,0.157387090845776
490,0.155880893813422
489,0.154775292530652
488,0.153693075645868
487,0.15259464143948
486,0.151639602348702
485,0.150812952476421
484,0.150061884688374
483,0.149425701783167
482,0.148732586182346
481,0.148156234162208
480,0.147502038964267
479,0.147120912982515
478,0.14665749336218
477,0.146098381725349
476,0.146109216986996
475,0.145706935408868
474,0.14548559681931
473,0.145524825066961
472,0.145293957701909
471,0.145010434857139
470,0.145108621793282
469,0.144983216856662
468,0.145057573384491
467,0.145038016058486
466,0.145206613951578
465,0.145212183173638
464,0.145242091840979
463,0.145204046347278
462,0.145438086168148
461,0.145676415469581
460,0.14568159248498
459,0.145809009956265
458,0.14584768795696
457,0.146140166012399
456,0.146291536341218
455,0.146517384978788
454,0.146783201283347
453,0.146947213367247
452,0.147147974686044
451,0.1473619486474
450,0.147721170631439
449,0.147909917573162
448,0.148057465070991
447,0.148307034140091
446,0.14861608092641
445,0.148933554636957
444,0.149222206039611
443,0.149321349930336
442,0.149594039328981
441,0.15011026964282
440,0.150144906779428
439,0.150439196116858
438,0.150805845652682
437,0.151196930427247
436,0.151490392742188
435,0.151567303048496
434,0.151905598528148
433,0.152198180490239
432,0.152492908787648
431,0.152825927293583
430,0.15311482123511
429,0.153403649509409
428,0.153750644711175
427,0.154041446372528
426,0.154317744398608
425,0.154640708635635
424,0.154855227233392
423,0.155200868256043
422,0.155607933510324
421,0.155920293999568
420,0.156184178335037
419,0.156480882766956
418,0.1568397811699
417,0.157240838673794
416,0.15728597711007
415,0.157751317676936
414,0.158281180491259
413,0.15857667363061
412,0.158823220849892
411,0.159212071669193
410,0.159515150748828
409,0.159795926684719
408,0.160496938584921
407,0.160645528165385
406,0.16104415364511
405,0.161255780353866
404,0.161734261882982
403,0.162010725291199
402,0.162468740709427
401,0.162873413066891
400,0.163333508528703
