1100,0.0142150681552773
1099,0.0119656273229216
1098,0.0111370394898394
1097,0.013736181662039
1096,0.0131554313953194
1095,0.0114196859685844
1094,0.0131605810692447
1093,0.0130501566282367
1092,0.01505169896878
1091,0.0118004960913876
1090,0.0142615039007485
1089,0.0121613280572892
1088,0.0143592063696826
1087,0.0130102517295142
1086,0.0121131998034428
1085,0.0153899517161982
1084,0.0152586353636389
1083,0.0144342370951872
1082,0.0136821883568403
1081,0.0133554330240968
1080,0.015444265061258
1079,0.0153170886281347
1078,0.0152552303012852
1077,0.0142372957065663
1076,0.01386145274563
1075,0.0143710595058762
1074,0.0156392858264027
1073,0.0143280900819883
1072,0.0154858160031991
1071,0.01430569736625
1070,0.0157496995850763
1069,0.015544165708531
1068,0.0160204850839186
1067,0.0145758782003163
1066,0.015548619387367
1065,0.0162889669896744
1064,0.0156023085916865
1063,0.0154934882064678
1062,0.016334899312767
1061,0.0163184770758294
1060,0.016658094861016
1059,0.0157110488923958
1058,0.0181491956572436
1057,0.0170381168393719
1056,0.0181339731880527
1055,0.0168585592810984
1054,0.0170295289009592
1053,0.0177249477183156
1052,0.0168579403383185
1051,0.0184315288100834
1050,0.0177471938464646
1049,0.0177705737328609
1048,0.0183976888302878
1047,0.0172441436518773
1046,0.0180883359684814
1045,0.0186115759049987
1044,0.0172815303161706
1043,0.0197520215150202
1042,0.0195819537974124
1041,0.0196876051701106
1040,0.019954488646426
1039,0.0190626019962684
1038,0.0191205686421293
1037,0.0192825538032538
1036,0.0199953620385817
1035,0.0199065730159869
1034,0.0200444531396502
1033,0.019265640885769
1032,0.0204639461062278
1031,0.0205731235650583
1030,0.021268236443641
1029,0.0210174981148579
1028,0.0200911639607083
1027,0.0211109441354153
1026,0.0209897317563991
1025,0.021163694719155
1024,0.0217906968600257
1023,0.0223441449369348
1022,0.0228210007827053
1021,0.022377639721629
1020,0.0228487480515847
1019,0.0236164703602416
1018,0.0233466174950672
1017,0.0234188186751807
1016,0.0237522799307904
1015,0.0237412615891995
1014,0.0237809070528969
1013,0.0242232129779261
1012,0.0252597497897956
1011,0.0256141507345545
1010,0.0250843854904069
1009,0.0253696182826564
1008,0.0257015053611822
1007,0.0263359506406236
1006,0.0259937121789028
1005,0.0263111699864695
1004,0.0267250905328934
1003,0.0275286324197916
1002,0.0275640189024868
1001,0.0275770102989674
1000,0.0275130224639692
999,0.0297696468778723
998,0.0286006345710969
997,0.0297975367156259
996,0.0300908488580024
995,0.0298959417127523
994,0.0311544619408276
993,0.0312424375041264
992,0.0312256086783986
991,0.0315087535416002
990,0.0317676019015253
989,0.0331666079410166
988,0.0331924534850805
987,0.0333926758346167
986,0.0340753382651061
985,0.0346284150265713
984,0.0347442970781635
983,0.0353140911942054
982,0.0366250733675281
981,0.037173061813377
980,0.0371133681148386
979,0.0376943555958306
978,0.0381052570179138
977,0.0384150387831283
976,0.039270559134931
975,0.0398663587693419
974,0.0401871393206569
973,0.0412262418061317
972,0.0414928288060252
971,0.0422042717855592
970,0.0427176766194065
969,0.0430717273234116
968,0.043700305811757
967,0.0438598979447293
966,0.0450856196310015
965,0.0456610156444285
964,0.0454845771545387
963,0.0470846593422285
962,0.0485276606760539
961,0.0478834192719978
960,0.0478971774735195
959,0.0489656353491398
958,0.0502903535693587
957,0.0487932656876388
956,0.0506558121907944
955,0.0507456174475562
954,0.0515263407642388
953,0.0529030540968988
952,0.053213540582761
951,0.0529113581470147
950,0.0542658717511768
949,0.0546837788133704
948,0.0556387170585892
947,0.0565277338599902
946,0.0575481480979665
945,0.0575321302620302
944,0.0590652767291674
943,0.0589107310654539
942,0.0599653548439515
941,0.0598189554999324
940,0.0616606339245155
939,0.0622520963295621
938,0.0627674571847337
937,0.0638451428619524
936,0.0649541876796736
935,0.0658715373373228
934,0.0666047808606933
933,0.0671436754700597
932,0.0687587726284262
931,0.0693725305174032
930,0.0697829853362958
929,0.0715991466518428
928,0.0722756922714611
927,0.0731713382538385
926,0.0736225383090478
925,0.0746888883560667
924,0.0765089922275873
923,0.0766645872004163
922,0.0776016507781312
921,0.0787124867897731
920,0.0798239315136068
919,0.0813163418348514
918,0.0822372292083373
917,0.0829075048028963
916,0.0841619527513991
915,0.08504774664883
914,0.0862983278982133
913,0.0875959076432118
912,0.0891243075662582
911,0.0894152789048045
910,0.0907664023498791
909,0.0921496495864065
908,0.0931532281520969
907,0.0942710707300294
906,0.0963009810069838
905,0.0973182906767416
904,0.0978133625999881
903,0.098803512791347
902,0.101327086110076
901,0.102652653750132
900,0.103294891078665
899,0.105399824260085
898,0.106969847390148
897,0.1072537419198
896,0.109292125898538
895,0.110412924154598
894,0.111987071126474
893,0.114170216639228
892,0.115521480835396
891,0.116172359334147
890,0.117936219040323
889,0.120232511482056
888,0.120858523649081
887,0.122172897396495
886,0.124213293194904
885,0.1264138398719
884,0.127836219343403
883,0.1288704732642
882,0.130769149198884
881,0.131939303105645
880,0.133944561072822
879,0.135963935488718
878,0.137671151666534
877,0.138769598640278
876,0.14213441886048
875,0.143331609374877
874,0.144898682045677
873,0.147070862355749
872,0.148891646626412
871,0.151004697442673
870,0.152905467163955
869,0.154743241442419
868,0.155790283242556
867,0.159347444765016
866,0.161345887121021
865,0.1632024283355
864,0.165283263576978
863,0.167225984749324
862,0.170006551614665
861,0.173242449774446
860,0.173298387246516
859,0.17618126094977
858,0.179169774031426
857,0.179477875620711
856,0.182164307162499
855,0.186223205603185
854,0.188832368536661
853,0.191043197374667
852,0.193980356083993
851,0.19573386242788
850,0.198582784014884
849,0.200288251590473
848,0.202727605350277
847,0.205468060269604
846,0.206965891987464
845,0.210062958050291
844,0.212712671159504
843,0.216517796939565
842,0.218472938833947
841,0.220977465515364
840,0.222215821043116
839,0.226525837401672
838,0.227931930531664
837,0.230783566878498
836,0.233168929987314
835,0.236017030398634
834,0.238392309300774
833,0.240931105747616
832,0.244313704134193
831,0.246689558510842
830,0.249637915766328
829,0.251795515376775
828,0.254089425955401
827,0.256196882061429
826,0.258443059940796
825,0.26165378560161
824,0.263740012800663
823,0.266048957269879
822,0.268491417830376
821,0.27036144534701
820,0.273084254226788
819,0.276385481960657
818,0.278343393423118
817,0.28073235487418
816,0.282291599610064
815,0.286282984802645
814,0.287851674600664
813,0.288578278019571
812,0.290464818779975
811,0.293476224906702
810,0.296012979012514
809,0.296398463955967
808,0.299306154287263
807,0.300390720575582
806,0.303547414246084
805,0.304481251584034
804,0.306089645487974
803,0.308232521157343
802,0.309210762081973
801,0.309834843710574
800,0.311890995501524
799,0.313296915777774
798,0.313732361436421
797,0.316347996010846
796,0.317375511974339
795,0.317571771578196
794,0.318284185992262
793,0.318964587580811
792,0.31969312767872
791,0.321641200746929
790,0.320492489562838
789,0.321039832359247
788,0.321844286172357
787,0.32239281974408
786,0.323092112877222
785,0.321809363922663
784,0.3222354659994
783,0.322450495958239
782,0.321050485364199
781,0.321621467426654
780,0.322143874748555
779,0.320643769459222
778,0.320355037621524
777,0.319382316591682
776,0.318209636032056
775,0.317975915456877
774,0.316073789044758
773,0.316175098659167
772,0.314761581889765
771,0.312979045839441
770,0.311768895239226
769,0.31035224762543
768,0.308964670442101
767,0.306903848218201
766,0.305118715366454
765,0.303018285422953
764,0.301873298612342
763,0.299344728001094
762,0.297929132799536
761,0.295259279952094
760,0.293355759568491
759,0.290928708302031
758,0.28926518191489
757,0.286298248328661
756,0.283511631111549
755,0.280762000651587
754,0.278652967968031
753,0.275880523479329
752,0.272873229819789
751,0.270762328876899
750,0.26812809064798
749,0.264090556134497
748,0.261799682586143
747,0.259308814757863
746,0.255687842094689
745,0.252390630519988
744,0.250154460854385
743,0.246289195157659
742,0.242963199387792
741,0.240564930285337
740,0.237198196492463
739,0.233462844629074
738,0.230809859595057
737,0.227471030766855
736,0.224172161846947
735,0.221157781819315
734,0.217044179254789
733,0.213547519502173
732,0.210610283220011
731,0.207556162591877
730,0.204030944052823
729,0.200710653544708
728,0.197288738168645
727,0.193872498425816
726,0.19097005948394
725,0.187001005088144
724,0.184593721244145
723,0.181030821305928
722,0.17780156899129
721,0.17485486891173
720,0.171679156999129
719,0.168731610548667
718,0.165172078081375
717,0.162697590835168
716,0.15934426914012
715,0.156555563851195
714,0.153783766055633
713,0.150838669892932
712,0.148169050670453
711,0.145503147765158
710,0.142568951051016
709,0.139836932112281
708,0.137308673208381
707,0.134016205460752
706,0.132241443205909
705,0.130007718656878
704,0.127072625368795
703,0.124943568682601
702,0.122402944028886
701,0.120234867329672
700,0.118093766044694
699,0.116017265948686
698,0.11414631206414
697,0.112096497593823
696,0.109891818731145
695,0.108069355463715
694,0.106070396006615
693,0.104005499762942
692,0.102703117662869
691,0.100874426565478
690,0.0990287231734804
689,0.0977509816973172
688,0.0962678300414766
687,0.0949285298636312
686,0.0936096600376683
685,0.0921993557647288
684,0.0906664300178916
683,0.0897190164486681
682,0.0886906288136443
681,0.0875340904578009
680,0.0866208111606338
679,0.0854456236357882
678,0.0847210803510269
677,0.0835721327385029
676,0.082711324121863
675,0.0822070426316536
674,0.0812717048885533
673,0.08066503511733
672,0.0799860093911084
671,0.0794797516991917
670,0.0788537256991002
669,0.0785560634589073
668,0.078121432977192
667,0.0776865250287982
666,0.0774869637929656
665,0.0770712685103995
664,0.0767101739002314
663,0.0766277136554132
662,0.0763914143571552
661,0.0764976621259229
660,0.0761027134817469
659,0.076397772440684
658,0.0763064842262397
657,0.0764752189007538
656,0.0764220945124882
655,0.0764761450081487
654,0.0766362986735588
653,0.076812236272392
652,0.077269154294915
651,0.0773622536374665
650,0.0776035078052462
649,0.0779368489776654
648,0.0785434391220066
647,0.0788726293150493
646,0.0792918864139547
645,0.0796654903349455
644,0.0803129628266445
643,0.080908256264924
642,0.081677476680408
641,0.0824046542074697
640,0.0827945718402267
639,0.083545743956257
638,0.0845173806076158
637,0.0855003992427507
636,0.0863451582380376
635,0.0872005815004664
634,0.0879561867767898
633,0.0889602134886948
632,0.0899788587996459
631,0.0911952301032012
630,0.0924128081184331
629,0.0934599773746598
628,0.0947402700506402
627,0.0960135952197623
626,0.0972513176766953
625,0.0985039118062966
624,0.100183817486513
623,0.101726589309588
622,0.103105760124856
621,0.104378012347019
620,0.106117061175344
619,0.108217052709208
618,0.109718722343118
617,0.111260751138831
616,0.113507100411623
615,0.11535790910718
614,0.117297886277582
613,0.11936049713307
612,0.121490096319346
611,0.123801451492428
610,0.126034334521726
609,0.128198837469732
608,0.130819349990523
607,0.133363455588686
606,0.136290465066278
605,0.138834987351322
604,0.141457566182286
603,0.144248000632277
602,0.147415413179294
601,0.150601848806243
600,0.153972399323012
599,0.157077056039161
598,0.160624881438214
597,0.163689098262265
596,0.167155456213952
595,0.170943913371139
594,0.174624090137931
593,0.178336694897052
592,0.182687650308132
591,0.186795201445346
590,0.190917182834804
589,0.195026824035332
588,0.199800929902545
587,0.204187954173191
586,0.209077815138829
585,0.214015690758489
584,0.218608579634946
583,0.223986774538435
582,0.228656715479822
581,0.233968879062765
580,0.239487572870375
579,0.245219551212029
578,0.250504711528858
577,0.255713960902142
576,0.261673834664681
575,0.267482706897383
574,0.273212578848729
573,0.278941949265685
572,0.284165411898252
571,0.290403027840923
570,0.296936738699681
569,0.302764553184722
568,0.308638205129286
567,0.314537880356015
566,0.320373224904497
565,0.326359576229543
564,0.332518876296567
563,0.338550724091852
562,0.34416261301778
561,0.349920330371049
560,0.355633542460551
559,0.361169774846444
558,0.366826195367628
557,0.371892057084754
556,0.377341633243875
555,0.382598856727339
554,0.387496216202579
553,0.391880470419177
552,0.396940014538882
551,0.401393521599097
550,0.405839819440056
549,0.41074085314326
548,0.414664964046524
547,0.41825060178626
546,0.421350433309264
545,0.425145338599094
544,0.428340241043712
543,0.431592490668991
542,0.434136986810253
541,0.435956051479476
540,0.438168174521257
539,0.440669338568763
538,0.442381271570694
537,0.443656965136078
536,0.444820946724835
535,0.445933628632294
534,0.446204352928919
533,0.446350467387423
532,0.446715715324328
531,0.44625646385709
530,0.446032261327213
529,0.445247903439346
528,0.44438641508955
527,0.443064205100644
526,0.441488278367473
525,0.440008124222476
524,0.438139670647394
523,0.435678614868974
522,0.433645484017812
521,0.430936249145471
520,0.428114726136644
519,0.425466110641275
518,0.422535227050352
517,0.419119820638209
516,0.415928248328236
515,0.412321717546817
514,0.408569674725664
513,0.404848158900658
512,0.401113344485397
511,0.396897241616281
510,0.392896559748006
509,0.388818441674335
508,0.384811287188131
507,0.380266268411766
506,0.375690877594892
505,0.371276283318571
504,0.367111197647321
503,0.362761194934696
502,0.35854873877834
501,0.353954687406714
500,0.349774228164572
499,0.345679812804725
498,0.341364675356824
497,0.337708076322697
496,0.333720789625526
495,0.329552393203139
494,0.325588055313155
493,0.321839723852745
492,0.318818637760626
491,0.315631412720196
490,0.312081844251478
489,0.308789627322013
488,0.306066939949293
487,0.303531115731783
486,0.300448933931009
485,0.29781313036476
484,0.295891245271628
483,0.293912580917133
482,0.291622939838641
481,0.289376806315236
480,0.287484387115924
479,0.285570300334143
478,0.28394311155383
477,0.282385128217227
476,0.281071079563721
475,0.279472059398672
474,0.278141733249733
473,0.277027194133097
472,0.275721516412692
471,0.27490195415119
470,0.273803856958329
469,0.272954754234298
468,0.272185249515845
467,0.271350568301532
466,0.270688649755604
465,0.270023110864342
464,0.269208015183183
463,0.268663608623622
462,0.268205656871071
461,0.267841129685679
460,0.267290049866332
459,0.266907911455838
458,0.266563791137804
457,0.266362984950666
456,0.265821176080618
455,0.265834257133302
454,0.26543994580461
453,0.265367640957931
452,0.265389865308812
451,0.265135307211456
450,0.265058478005468
449,0.265013778431718
448,0.264946737696193
447,0.264879183301602
446,0.264963318236826
445,0.265075873006358
444,0.265028550702973
443,0.265114811739171
442,0.26501906780013
441,0.265330682377698
440,0.265247811214715
439,0.265357864511405
438,0.265654260159617
437,0.265712007623945
436,0.265838888111349
435,0.265977697147276
434,0.266213635804084
433,0.266392430715227
432,0.266626920834411
431,0.266773445788314
430,0.267149767302756
429,0.267412313209094
428,0.267805974293923
427,0.267979236867001
426,0.268303162288846
425,0.268507605853946
424,0.268841059618606
423,0.269131039433947
422,0.269613325035934
421,0.27004094689328
420,0.27027678878009
419,0.270671366424496
418,0.270937016684371
417,0.271483605193666
416,0.271694632760401
415,0.272372481653328
414,0.272638398884909
413,0.273217871900462
412,0.273787713436539
411,0.274397694098469
410,0.274677376494344
409,0.275238355516211
408,0.275809781349792
407,0.276209958331089
406,0.276847934269395
405,0.2773564707405
404,0.277891912599191
403,0.278474608783084
402,0.278933486144104
401,0.279554142264822
400,0.280286479520836
