1100,0.00110214635432518
1099,0.00526059450567964
1098,-0.00101886638872194
1097,0.00184214164529835
1096,0.00237658420412856
1095,0.00175592146677912
1094,0.000420565809420116
1093,-0.000895403857844624
1092,0.00207278741555594
1091,0.00102531003542171
1090,0.000950692431729326
1089,4.70891291450807E-05
1088,0.00182100741014088
1087,0.00146772669865531
1086,0.000545656452101997
1085,0.00200953616050045
1084,0.00151370240350305
1083,0.00256220359185931
1082,0.00414558410206726
1081,-1.76024227864886E-06
1080,0.00158576677547617
1079,0.00187890154741546
1078,0.00203429460062828
1077,0.00175168498031648
1076,-0.000523099121667092
1075,0.00363433338162541
1074,0.00123324840340231
1073,0.00257800963682234
1072,0.00115283306962359
1071,0.00292072820743442
1070,0.000976739679676675
1069,0.00172699462383277
1068,0.00185935133941414
1067,0.00334455070987044
1066,0.0042067425472261
1065,0.000936346357750492
1064,0.00318905329019398
1063,0.00175852055868272
1062,0.00234553389573361
1061,0.00242187530668783
1060,0.00281274632399364
1059,0.00122143695506565
1058,0.00200501113597617
1057,0.00216541823181198
1056,0.00267306635515329
1055,0.00297233134818634
1054,0.00294144691361378
1053,0.00325938798089556
1052,0.0019920604642829
1051,0.00201811823306702
1050,0.00253324903458208
1049,0.00279826044976075
1048,0.00255280356443074
1047,0.0023752567775413
1046,0.0025972016047329
1045,0.00249229413085135
1044,0.00346124946205307
1043,0.00327013347504682
1042,0.00368168771294606
1041,0.00317421587272321
1040,0.0030324384935713
1039,0.00297102816310541
1038,0.00317445055552152
1037,0.00334366378376151
1036,0.00379698864473189
1035,0.00212813982145819
1034,0.0029940429869136
1033,0.00323865410164272
1032,0.00339103860786826
1031,0.00323847154358009
1030,0.00302891941581618
1029,0.00296130652579742
1028,0.00328406128299916
1027,0.0038128919226398
1026,0.00246870710877045
1025,0.00264488572812345
1024,0.00336176786966274
1023,0.00354204121145076
1022,0.00411239487596933
1021,0.00443550965915815
1020,0.00490283035961279
1019,0.00375544440541406
1018,0.00329392056312448
1017,0.00453670237460946
1016,0.00445405161024776
1015,0.0042918036945722
1014,0.00419505905055155
1013,0.00480102883384442
1012,0.00421479310367768
1011,0.00442023733491276
1010,0.00492814701780332
1009,0.00504642442355069
1008,0.00512573048150342
1007,0.00494328012008279
1006,0.00510873136528489
1005,0.00551136218121344
1004,0.00551865044726182
1003,0.00585378059957096
1002,0.00625056396417212
1001,0.00562762198748302
1000,0.0058317681106444
999,0.00561985987615436
998,0.00617653988006119
997,0.00628459984533936
996,0.00686459135135363
995,0.00602847705698295
994,0.00603446159639852
993,0.00645852386424098
992,0.00692781726045516
991,0.00673816714031156
990,0.00692571308879267
989,0.00742508208307027
988,0.00713936484174968
987,0.00817348609539524
986,0.00843164280524838
985,0.00749702800215399
984,0.00809412266948819
983,0.00886328446687547
982,0.00837025599395008
981,0.00853963180811145
980,0.00882830620735327
979,0.00911764844809472
978,0.00874435931175611
977,0.0085459414556939
976,0.00913599484173234
975,0.00948776628248747
974,0.00982962852559896
973,0.00996291547127938
972,0.00978077836576032
971,0.0104900285699447
970,0.0110425285272359
969,0.0102437119366713
968,0.0109097858491789
967,0.0107934304426972
966,0.0103835950085965
965,0.0109704442189831
964,0.0114740100203694
963,0.0106749837859106
962,0.0120821375513501
961,0.0114833393450238
960,0.0112025639371099
959,0.0112544964941819
958,0.0113695140157788
957,0.0107895294671314
956,0.0110276062261559
955,0.0118677435078874
954,0.0118716009737364
953,0.0113755726091545
952,0.0118282929104565
951,0.0114095341841248
950,0.0117992193424344
949,0.0120955257217738
948,0.0117298815522388
947,0.0118124125959525
946,0.0124759434799069
945,0.0120075918871974
944,0.0121344149748072
943,0.0125460133224841
942,0.0125683687802493
941,0.0117304400402707
940,0.0129835527049454
939,0.0124470662718201
938,0.01317514990756
937,0.012998515692365
936,0.0127895339802991
935,0.0131883316586021
934,0.0133109090796167
933,0.0136007702768262
932,0.0128918123239013
931,0.0135128516184691
930,0.0139908501747631
929,0.0137299564606534
928,0.0139527566567059
927,0.0143423503223106
926,0.0144020450785349
925,0.0139141586332147
924,0.0142018017113188
923,0.0154288420628559
922,0.0149285221373507
921,0.0150237218733405
920,0.0150633030246919
919,0.014884801022135
918,0.0155716397326172
917,0.015780810523143
916,0.0159450187093868
915,0.015977352162442
914,0.0163744119853367
913,0.0165667314354488
912,0.0167600508395495
911,0.0168339098940879
910,0.0169060052161154
909,0.0172639678799464
908,0.0175840011628456
907,0.0183349041526564
906,0.0180255150449801
905,0.0184721510710091
904,0.0186380557419616
903,0.019262204261451
902,0.0196774207859388
901,0.0196444586054427
900,0.0202673168086496
899,0.0205687537683814
898,0.0203200735200542
897,0.0210949381413597
896,0.021634140323248
895,0.0217187930384455
894,0.0224294540745494
893,0.0229887391825726
892,0.0233761739996269
891,0.023425266280736
890,0.0231919293857905
889,0.0243470835506813
888,0.0253437127172737
887,0.0248684936339201
886,0.0257897840617267
885,0.026192539473179
884,0.027169883096477
883,0.0269311660120851
882,0.0278200844992029
881,0.0282429327609247
880,0.0285892990043412
879,0.0290921361076408
878,0.0296569413849946
877,0.0302480143112244
876,0.0312906466591942
875,0.0304160089195751
874,0.0317130741687276
873,0.032847172266243
872,0.0333762946042953
871,0.0341965900874414
870,0.0345890563706827
869,0.0347145455539274
868,0.0354241178594735
867,0.0373927612919216
866,0.038124248044463
865,0.0391823588487468
864,0.0381904405240182
863,0.0407368005316684
862,0.041093023874132
861,0.0417123883794424
860,0.0428455084611221
859,0.0431681261854439
858,0.04431523240242
857,0.0452082041808475
856,0.0473398567697239
855,0.0473283389199736
854,0.0481671402748535
853,0.0497974761040133
852,0.0495675534504087
851,0.0500319356183393
850,0.0515474435540692
849,0.0530189742841714
848,0.054994219326416
847,0.0547378329592638
846,0.0560936752612854
845,0.0569213813949826
844,0.0579768594182275
843,0.0613326928618633
842,0.0606715992460166
841,0.0617816314267405
840,0.0632632467713709
839,0.0651848248390548
838,0.0655038592357508
837,0.0668312845438943
836,0.0690132870523334
835,0.0698723043360385
834,0.0708285110734498
833,0.0720526573171016
832,0.0743410727423648
831,0.0762215398487278
830,0.0766160098932673
829,0.0777762770072953
828,0.079086027186471
827,0.0802593980815585
826,0.0822534025691112
825,0.0832954597320275
824,0.0848489290287867
823,0.0864862481846523
822,0.0878338845883672
821,0.0896669202466637
820,0.0904868311110357
819,0.0926996147595756
818,0.0942511632549225
817,0.0963219520764415
816,0.0971331685487403
815,0.0989076190691142
814,0.100007311907153
813,0.101991197526529
812,0.104203874521358
811,0.105858020470907
810,0.106473461537325
809,0.107839243123177
808,0.109296320871673
807,0.111219449101688
806,0.113177970737156
805,0.114417925280709
804,0.116095515915192
803,0.118155298946715
802,0.11927187933493
801,0.120203388798141
800,0.122058296911176
799,0.123730198913886
798,0.124682920540305
797,0.125807855569889
796,0.126992996763413
795,0.128665451401469
794,0.130225463460624
793,0.132150333427367
792,0.131796744648269
791,0.133169387070153
790,0.135385532789188
789,0.136248696669946
788,0.137926236717975
787,0.137994486261519
786,0.140200312322853
785,0.140649266602759
784,0.141456920833995
783,0.142106985533743
782,0.141878896417839
781,0.143490504646493
780,0.145140945913844
779,0.14611940020506
778,0.146211023666744
777,0.14676280393403
776,0.147528542708658
775,0.147687162701849
774,0.148591369498884
773,0.148706336964129
772,0.149360195975981
771,0.149891976614854
770,0.149312077045941
769,0.150045794136817
768,0.150205811928737
767,0.150285714878465
766,0.150270347784846
765,0.150511417667208
764,0.150402522563109
763,0.150980069616938
762,0.149885396619196
761,0.149942499680668
760,0.14948592180137
759,0.149424971452146
758,0.14840028611539
757,0.148413182691093
756,0.148033950197807
755,0.146667217734197
754,0.146274062263905
753,0.14582193845525
752,0.145511688275764
751,0.14459862420015
750,0.143726577929702
749,0.142802258061526
748,0.142494013075509
747,0.141225446078322
746,0.140481283621583
745,0.139350388198452
744,0.137840859868829
743,0.13693390102691
742,0.136128302882146
741,0.134764402197078
740,0.133758721363611
739,0.132481803611417
738,0.131500484995049
737,0.129860975401154
736,0.129212414834553
735,0.128007201671379
734,0.126459521954173
733,0.125416923774141
732,0.123870236809407
731,0.122912011275833
730,0.121298248569013
729,0.120309202592078
728,0.118737183427458
727,0.117336005819449
726,0.116614236030539
725,0.114837078314296
724,0.113717465387114
723,0.112046438096942
722,0.111067819030586
721,0.10934533181386
720,0.108434738696798
719,0.107086662259757
718,0.105752730234118
717,0.10459569229265
716,0.103219241945481
715,0.102223897943268
714,0.101114533837082
713,0.099564522136573
712,0.0986523219850606
711,0.0978150162697336
710,0.0964827100506834
709,0.0953181254509869
708,0.0942092286841046
707,0.0933157374991486
706,0.0921388641288755
705,0.0917256660214616
704,0.0904667775333347
703,0.0898118631082584
702,0.0890084438500036
701,0.0881647725949735
700,0.0873069118981979
699,0.0867129661435292
698,0.0860758974883235
697,0.085282251829313
696,0.0846547636454647
695,0.0837225260603354
694,0.0835154976691713
693,0.0828611689751123
692,0.082513948617642
691,0.0818766915194053
690,0.0817252174171079
689,0.081253570488785
688,0.0811161045305337
687,0.0807286566702673
686,0.0806685261122645
685,0.0804978742420372
684,0.079904511724641
683,0.0804091156593346
682,0.0804611411296118
681,0.080048535531901
680,0.0801875943170311
679,0.0801970283926977
678,0.0800071097901604
677,0.0804616396073737
676,0.0805819140894692
675,0.0805151046688762
674,0.0809834856633966
673,0.0813856162226026
672,0.081724030083842
671,0.0820205267439847
670,0.082400460754553
669,0.0827780964202664
668,0.0835257573250796
667,0.0837946341500117
666,0.0845897466124972
665,0.0849139848777289
664,0.0856962359851504
663,0.0863203687912157
662,0.0871388838310733
661,0.087875429875429
660,0.0885906569661673
659,0.0893338686800305
658,0.0901778410176016
657,0.0910666171237351
656,0.0919636139812795
655,0.0929794922361416
654,0.0937668791640601
653,0.094872487793124
652,0.0960072339903821
651,0.0966373834501816
650,0.0978327530843298
649,0.0990382828951673
648,0.100053004161625
647,0.101294039559539
646,0.102554202060359
645,0.103804684173906
644,0.10518616028677
643,0.106196522476078
642,0.107384521707029
641,0.108832489181061
640,0.110095302688599
639,0.111710311071863
638,0.113152206050345
637,0.11466553933404
636,0.116215623561397
635,0.117554138359131
634,0.119187945893419
633,0.12100304256302
632,0.122227979484461
631,0.123883389196772
630,0.125700002200331
629,0.12761164668876
628,0.129242566271421
627,0.130924423111693
626,0.132713301682915
625,0.134697576112187
624,0.136660994427475
623,0.13875591636269
622,0.140805894568321
621,0.142513060831628
620,0.144646079217016
619,0.146768610911024
618,0.149217680128256
617,0.150732476327418
616,0.153318859967663
615,0.155316932746359
614,0.157782325854225
613,0.160236935493836
612,0.162554658287387
611,0.164894276653894
610,0.167545598950476
609,0.169907586523076
608,0.172409371743059
607,0.175242614817066
606,0.177925627966022
605,0.180814205617
604,0.183401994829256
603,0.186160372562945
602,0.188974658369977
601,0.191898377374212
600,0.194860075906698
599,0.197689540555445
598,0.201091142208877
597,0.203750571019033
596,0.206741200153812
595,0.210067534789431
594,0.213165733400555
593,0.21636538291071
592,0.21978483774674
591,0.223195551413919
590,0.226111910189325
589,0.229525931706339
588,0.232735530859927
587,0.236238842600123
586,0.239999465750481
585,0.243108341250061
584,0.246760966804511
583,0.249597810743914
582,0.253416672660166
581,0.25680545121281
580,0.259723910056586
579,0.263299276508138
578,0.266340662949842
577,0.269885219700678
576,0.273110566666147
575,0.275971850628897
574,0.279457723586712
573,0.282559692781923
572,0.284792049663146
571,0.288105734468213
570,0.291093231036583
569,0.293872500550247
568,0.296613806547958
567,0.298599644680507
566,0.301481526279783
565,0.304033291840003
564,0.306491837578482
563,0.308824361483913
562,0.310974821117657
561,0.313018374355841
560,0.314830892644546
559,0.316250908717002
558,0.31860666497542
557,0.319837452478875
556,0.321590932762884
555,0.322683916741909
554,0.324162975633085
553,0.325227179782909
552,0.326062715270201
551,0.32684134398962
550,0.327983195840464
549,0.328133195577379
548,0.328583947191026
547,0.328531793647838
546,0.32919343002493
545,0.328724663374179
544,0.328681403673377
543,0.328123882790611
542,0.327813534071553
541,0.327156881551486
540,0.326147429701519
539,0.325437946144287
538,0.324079930328607
537,0.323187609099466
536,0.321747618698593
535,0.319916932677193
534,0.318193989706411
533,0.31685998695275
532,0.314693965132701
531,0.312517189062017
530,0.310358409965617
529,0.308430089072812
528,0.306451182226327
527,0.303713897201616
526,0.301239619045429
525,0.298805625621477
524,0.296086987698111
523,0.293217682687388
522,0.290662123598595
521,0.287321978040185
520,0.284511361235242
519,0.281578400100868
518,0.278732781367549
517,0.275962321216705
516,0.272829222701718
515,0.269526984476365
514,0.266368673181417
513,0.263158948341772
512,0.260314959366431
511,0.25708053093596
510,0.253973503804988
509,0.250682271138725
508,0.247482881526562
507,0.244733350746693
506,0.24147359099844
505,0.238263968257238
504,0.235428517858528
503,0.232236542431922
502,0.229361729175937
501,0.226375843467541
500,0.223528611215107
499,0.220927350276655
498,0.218122986034285
497,0.215745370439158
496,0.213156091554905
495,0.210644169717584
494,0.208266058082123
493,0.205830994271117
492,0.20395103192188
491,0.201928568329638
490,0.199821270194948
489,0.197896817160419
488,0.196298516962489
487,0.194647110986001
486,0.193020289394166
485,0.191544483118799
484,0.19040145092459
483,0.189339073672205
482,0.187875822652923
481,0.18677558154821
480,0.185759464683628
479,0.184681595037595
478,0.183696478549881
477,0.182981531534998
476,0.182334640634229
475,0.181574033014411
474,0.180766986198076
473,0.180317736186943
472,0.179698563103781
471,0.179140094220819
470,0.178894873490798
469,0.178237764532868
468,0.177900984896627
467,0.177668465288006
466,0.177356036513592
465,0.177018733395074
464,0.176755962590943
463,0.176599464872127
462,0.176471003927274
461,0.176283064658124
460,0.176032268940364
459,0.175981024707842
458,0.175803269621141
457,0.17578774861339
456,0.175842540247899
455,0.175724777815234
454,0.175781695570715
453,0.175843277576236
452,0.175733856220997
451,0.175822865685679
450,0.175943294183591
449,0.176007888354488
448,0.176069657752338
447,0.176124873286378
446,0.176104642307511
445,0.176337646865494
444,0.176509829718977
443,0.176584070876135
442,0.176824333827386
441,0.177004764224748
440,0.176967255917989
439,0.177203370994344
438,0.177494926595461
437,0.177649448236002
436,0.177855055818766
435,0.178070200207171
434,0.178321707547348
433,0.178565355139372
432,0.178704007557421
431,0.179024757166414
430,0.179175913586671
429,0.179533095685834
428,0.179621517200877
427,0.179974208063832
426,0.180205731450523
425,0.180482169280672
424,0.180622808375415
423,0.181043781623897
422,0.181465438515861
421,0.181586734289474
420,0.181923118992031
419,0.182246649639266
418,0.182668648733005
417,0.182887572029285
416,0.183262268867384
415,0.183610502636906
414,0.183891963237494
413,0.184203038767081
412,0.184665634663141
411,0.185022407795641
410,0.185356229240633
409,0.185689950205222
408,0.186186800279914
407,0.186470810951715
406,0.186972417628082
405,0.187375403722476
404,0.187720292103703
403,0.188090880823087
402,0.188536860206686
401,0.188975938310214
400,0.189478806607001
