1100,0.0559095325875763
1099,0.05595681973675
1098,0.0543957992055403
1097,0.0572947395484203
1096,0.055205722011109
1095,0.0628389804296811
1094,0.0603984532716059
1093,0.0644937009061685
1092,0.0656000999927488
1091,0.0623742449233724
1090,0.0613017486810875
1089,0.065028176688717
1088,0.0677219935647166
1087,0.06723574725871
1086,0.0689298784704616
1085,0.066766013771245
1084,0.065939837481815
1083,0.0682874201317604
1082,0.070312570587881
1081,0.0681011540345913
1080,0.0693328698249634
1079,0.0726269056633284
1078,0.0701781892816416
1077,0.071561388182346
1076,0.0716314744172504
1075,0.0746469255063655
1074,0.0738553409499496
1073,0.075245363884475
1072,0.0747153285706216
1071,0.0780998972329444
1070,0.0769080805892824
1069,0.0804742886720466
1068,0.0825443756672348
1067,0.0803689014378036
1066,0.0823180081709179
1065,0.0830504909224082
1064,0.0820360979435376
1063,0.0839503493518675
1062,0.0839329820956131
1061,0.0864021951281183
1060,0.0859109318824765
1059,0.0869664932222994
1058,0.0888008499203175
1057,0.0905256975172269
1056,0.0902347143810943
1055,0.0931672147189671
1054,0.0931138051389589
1053,0.0952796337040747
1052,0.0968835065853985
1051,0.0964036164135048
1050,0.0973101937787801
1049,0.0985114464041818
1048,0.100403058075329
1047,0.101214032213565
1046,0.102267694666492
1045,0.104436512783362
1044,0.104916006256287
1043,0.10719462885855
1042,0.107415217246568
1041,0.108561919395064
1040,0.110015558430593
1039,0.110808849658263
1038,0.112411059540312
1037,0.115609269020168
1036,0.115271690677737
1035,0.117991309834027
1034,0.118540629893884
1033,0.121617870659341
1032,0.122526010338133
1031,0.124255746317787
1030,0.126950448611555
1029,0.127685414595149
1028,0.130073896778628
1027,0.130961657916688
1026,0.132614996532123
1025,0.134601608825831
1024,0.1369623578827
1023,0.139156158529834
1022,0.141083353458021
1021,0.143374460715309
1020,0.144666991406933
1019,0.147132754540588
1018,0.148784651825986
1017,0.152106865236444
1016,0.153889822987164
1015,0.15565245801314
1014,0.15833130994183
1013,0.160431838946584
1012,0.162986272032559
1011,0.165357352549738
1010,0.167813177898736
1009,0.170779215924619
1008,0.173791759020847
1007,0.176876066659716
1006,0.179060019686068
1005,0.18314247751095
1004,0.185461238377658
1003,0.188053001468658
1002,0.191073742117802
1001,0.194053921794309
1000,0.197286985011958
999,0.201155720641308
998,0.204165585771915
997,0.208428790121735
996,0.211508664434023
995,0.21532662659371
994,0.218667250554809
993,0.22227921355896
992,0.225444294928581
991,0.229287858287112
990,0.233561584331811
989,0.238067228404751
988,0.242235277684405
987,0.245743080909711
986,0.250717957764803
985,0.254041427179345
984,0.260128282339628
983,0.264359204360281
982,0.269184921025818
981,0.274232365827335
980,0.278671850405227
979,0.28272003254354
978,0.28774330353509
977,0.293664569819513
976,0.298273982228011
975,0.30440389421518
974,0.310103526058751
973,0.31546412571609
972,0.321322266005236
971,0.327975538841595
970,0.333088983017431
969,0.338655439697799
968,0.34509306186504
967,0.35145836683812
966,0.357457582598326
965,0.363853420056879
964,0.37089609754268
963,0.377990642030733
962,0.386126768180328
961,0.390888496482693
960,0.399165586087261
959,0.40712878015253
958,0.413806620698388
957,0.421102578391464
956,0.430001831718666
955,0.436345743433778
954,0.445620025065634
953,0.452820804843462
952,0.461378283149618
951,0.470718063558586
950,0.478062815418379
949,0.486645560630849
948,0.495731817397665
947,0.505074522100481
946,0.513790871240285
945,0.52403365473683
944,0.532723546274701
943,0.543289645880115
942,0.552470477194078
941,0.56173293995405
940,0.573147185177646
939,0.583742583082681
938,0.594005044043155
937,0.604152832771095
936,0.614371994236922
935,0.625837179755973
934,0.63799537701116
933,0.648487219343917
932,0.660103890853368
931,0.67193664351779
930,0.683618607626392
929,0.694090439683468
928,0.70739834797334
927,0.719806333152437
926,0.732287760659373
925,0.74549333452066
924,0.756891406685811
923,0.770948421041235
922,0.78274205044574
921,0.795408147697994
920,0.808872158367361
919,0.824127213058416
918,0.837795316388254
917,0.850913588074534
916,0.861263707176994
915,0.873653886997766
914,0.889696205822219
913,0.903147535312216
912,0.918392300680438
911,0.934347863083275
910,0.94902734749362
909,0.96066121718035
908,0.977848238222089
907,0.992473876631338
906,1.01073774534621
905,1.02198429351704
904,1.03438984388456
903,1.04742863962133
902,1.06489070878353
901,1.0830116218025
900,1.09748823081201
899,1.11034209069325
898,1.12693895404367
897,1.14395798363736
896,1.1566700509062
895,1.1684373122636
894,1.18656845269906
893,1.20133392670934
892,1.21734887605815
891,1.22876154090365
890,1.2474118406329
889,1.26867789286003
888,1.28206129195327
887,1.29514468426523
886,1.30900695257631
885,1.32513362835791
884,1.33742717196485
883,1.35026061980636
882,1.36370988955691
881,1.3737916752958
880,1.39258224810697
879,1.40179605651208
878,1.42933443061957
877,1.4321687900841
876,1.44790892666578
875,1.45308382602524
874,1.46449547257839
873,1.48467307310894
872,1.49249762580849
871,1.50779567141578
870,1.52841550331608
869,1.53881851629683
868,1.53498843815872
867,1.54259372442373
866,1.55424379095666
865,1.58191173643827
864,1.59122300383578
863,1.57938360968386
862,1.60222578376782
861,1.60326428278512
860,1.61139790717739
859,1.62165069877742
858,1.63224896480599
857,1.64343390632904
856,1.65058187726863
855,1.66313188155356
854,1.64443151116927
853,1.65488176037514
852,1.66099692338174
851,1.68309432347551
850,1.67050483072893
849,1.67154207067941
848,1.68359925099015
847,1.69631440275158
846,1.68811332383009
845,1.68431783620218
844,1.68848938899539
843,1.69895521075709
842,1.69392341300836
841,1.69274242526057
840,1.67615041653052
839,1.67875128600931
838,1.67448041804986
837,1.68344787890111
836,1.66140511427522
835,1.66683067393125
834,1.65865527917947
833,1.65692925883203
832,1.65329995000769
831,1.63783833270038
830,1.64584129555915
829,1.62997296830343
828,1.61922337272453
827,1.62738684155994
826,1.61013883114793
825,1.59967896388356
824,1.58768164448701
823,1.58150164133305
822,1.57150762343498
821,1.55739903184914
820,1.54877053867306
819,1.53053913656827
818,1.52910279715877
817,1.50474231039983
816,1.50434716856077
815,1.47382920290906
814,1.46367615058498
813,1.4442741330117
812,1.43645794759871
811,1.42623913497311
810,1.40903022661561
809,1.39207891871176
808,1.37433537292188
807,1.35906762268405
806,1.34438704361849
805,1.32704848413123
804,1.31828279210303
803,1.30548763676313
802,1.27823855406256
801,1.26153625240248
800,1.2437526538014
799,1.23218446487917
798,1.21512502053963
797,1.19974284638866
796,1.17613948405632
795,1.16443227990308
794,1.14154491216548
793,1.12578532483146
792,1.10400356745286
791,1.08903101197017
790,1.06697554450043
789,1.05256330900838
788,1.03813387811222
787,1.0183261352733
786,1.00131572982141
785,0.98424100781027
784,0.965549200425506
783,0.950544952438263
782,0.93115013384305
781,0.915363164626891
780,0.896610893310107
779,0.879674215890123
778,0.866216504996599
777,0.846518380465632
776,0.829880500211326
775,0.812957216159302
774,0.800152624296042
773,0.781904814816905
772,0.766338582995172
771,0.752263388835945
770,0.73562636868557
769,0.71915424570738
768,0.705672266401265
767,0.689954594853889
766,0.675992449398049
765,0.661172128912239
764,0.649704388067405
763,0.636570397139847
762,0.622581765774091
761,0.609013611822459
760,0.596017620523453
759,0.581942529267897
758,0.570844431211884
757,0.558424080127759
756,0.546411385548302
755,0.53455625625745
754,0.523954932015163
753,0.512485413295896
752,0.501584890989958
751,0.490430402154346
750,0.481155573450133
749,0.470844801362862
748,0.460117078934589
747,0.451486614633968
746,0.441028158310777
745,0.432173814176558
744,0.423752689347192
743,0.414063005346634
742,0.406182880411363
741,0.397401422796535
740,0.389924353811679
739,0.382215997991282
738,0.374612115290397
737,0.366985923053572
736,0.359900735284107
735,0.353292917198943
734,0.346682758472668
733,0.340090722471012
732,0.333813766796939
731,0.327679360682331
730,0.321879265548412
729,0.316417774987654
728,0.311039079851852
727,0.305761617340131
726,0.300123277251479
725,0.295386917939253
724,0.290413687792415
723,0.285735804066819
722,0.281392501788743
721,0.277157767351195
720,0.272867504275351
719,0.269164618426859
718,0.265483067353528
717,0.26131829030387
716,0.258570745040613
715,0.254791566877893
714,0.25127770843217
713,0.248607169799454
712,0.245717554909987
711,0.242931767434594
710,0.240001984895492
709,0.237101754576355
708,0.235160361576502
707,0.232800566257314
706,0.230690476152131
705,0.228452145116926
704,0.226115613559315
703,0.224695445844481
702,0.222652501535781
701,0.220995980339611
700,0.219679994010352
699,0.21831337536342
698,0.216753660477671
697,0.21579514650123
696,0.214530944560944
695,0.213493979832142
694,0.212471982629953
693,0.211426100977053
692,0.210814441034404
691,0.210280301419291
690,0.20982927256044
689,0.209206194490925
688,0.208820374729631
687,0.208573129379664
686,0.207847484202622
685,0.207525730424064
684,0.20752493729594
683,0.207782279007383
682,0.208028614693243
681,0.207700671436797
680,0.208416032002233
679,0.208319918940024
678,0.208771307914637
677,0.209536115743466
676,0.209744300484465
675,0.210196207084007
674,0.211029972644681
673,0.211766734296489
672,0.213072072776276
671,0.213828658165717
670,0.214474653668116
669,0.215671184914391
668,0.216841763832098
667,0.218017601856438
666,0.219460084722996
665,0.220765892823141
664,0.222032604788743
663,0.223621652098071
662,0.225058082399516
661,0.22683937863246
660,0.228360603817034
659,0.230110539841551
658,0.23206137370964
657,0.233861974341983
656,0.235765973156523
655,0.237837408313412
654,0.240064248408662
653,0.242255535277145
652,0.244394129232011
651,0.246672793198246
650,0.248808606166533
649,0.251330620312715
648,0.253664730421829
647,0.256584662222717
646,0.259161683405943
645,0.261738432988345
644,0.26461145112608
643,0.267621850655221
642,0.270375242795855
641,0.273660871522934
640,0.276663119406311
639,0.279698539332688
638,0.282865039389488
637,0.285825678226573
636,0.289826719144843
635,0.292771254927525
634,0.296419926817991
633,0.300279227079671
632,0.303980460084215
631,0.307592812774021
630,0.311734375830223
629,0.315612164742853
628,0.319528104836899
627,0.322968728861394
626,0.327527564049759
625,0.331677311668154
624,0.336740459518552
623,0.34065801589224
622,0.345386252235482
621,0.349929427177333
620,0.35483572826371
619,0.359760897938694
618,0.364651025659828
617,0.369716930607272
616,0.374967333471314
615,0.379933667184249
614,0.385746954520451
613,0.391291508424061
612,0.396709381179825
611,0.402695504164384
610,0.408369538733547
609,0.413590370839534
608,0.420323678546918
607,0.42684096378387
606,0.433159028444627
605,0.439127321059743
604,0.445150350528419
603,0.451567478999196
602,0.458837189219238
601,0.465841636180808
600,0.472650771579002
599,0.479833665017901
598,0.486922009356647
597,0.493411417662003
596,0.500474673856908
595,0.50764475098485
594,0.515043822053567
593,0.522321760445708
592,0.529863493020819
591,0.537578182307706
590,0.545166771575684
589,0.552305164857362
588,0.559732831007486
587,0.567171197707183
586,0.574300364533446
585,0.581814479046035
584,0.589263594986368
583,0.596078841722832
582,0.603541120610838
581,0.610603899958317
580,0.617713285318064
579,0.624852373628594
578,0.631726328339643
577,0.638279725001929
576,0.644858190480453
575,0.650773816186588
574,0.657491259213795
573,0.664013315034532
572,0.669659623685532
571,0.676057332902358
570,0.681690653504252
569,0.687299622204582
568,0.693657174888982
567,0.699407626427802
566,0.704081178137393
565,0.709408284482296
564,0.714934358375827
563,0.719611143618823
562,0.724733995098603
561,0.729426182531187
560,0.734273039644391
559,0.738906688317534
558,0.743322132513884
557,0.747018449599393
556,0.750674760107828
555,0.754450345653723
554,0.757797325242545
553,0.761152638001934
552,0.763769347453586
551,0.766360953505881
550,0.76900180153555
549,0.771247668579771
548,0.772997535083383
547,0.774931661429685
546,0.776410186021862
545,0.777346321900449
544,0.77821332937232
543,0.778865189458417
542,0.779384252171105
541,0.779399867130394
540,0.77930311015034
539,0.778913302561674
538,0.778359488199378
537,0.777357367801001
536,0.775783777596511
535,0.77484942024091
534,0.773532908733704
533,0.772089478497804
532,0.770403711103471
531,0.768010207652415
530,0.765878731396791
529,0.763624674378924
528,0.760993381092946
527,0.758217206581592
526,0.755841101681538
525,0.753046877435458
524,0.749583298600892
523,0.746289409194433
522,0.742638192663568
521,0.73899694374891
520,0.735371086315791
519,0.731610954429049
518,0.727700390012635
517,0.723953573014055
516,0.719112114031704
515,0.71453580837615
514,0.709406925556053
513,0.704611898743301
512,0.700160733028702
511,0.694705773358702
510,0.689294779261823
509,0.683929056314962
508,0.678215512514603
507,0.671608487720748
506,0.665796540721033
505,0.659552552383798
504,0.653736347388284
503,0.647267822073152
502,0.640438211107716
501,0.634249843958879
500,0.627789511010074
499,0.621238101478756
498,0.615022767406177
497,0.609131652888931
496,0.603373306456575
495,0.596997071061814
494,0.591136165620858
493,0.585881995564561
492,0.581218906875587
491,0.576853015859063
490,0.57139973872489
489,0.566948811733836
488,0.563319370657332
487,0.559793888804613
486,0.555550719206858
485,0.55221399293799
484,0.549862152440587
483,0.547138673188135
482,0.544159677401432
481,0.541632989130837
480,0.539603812747744
479,0.537374277791068
478,0.53568471078373
477,0.534044008384224
476,0.532928810633533
475,0.531544561052955
474,0.530337604295013
473,0.529452311089711
472,0.528666439293492
471,0.528200262385814
470,0.527257291555644
469,0.526852312990617
468,0.526625877833386
467,0.526235487060083
466,0.526163449931051
465,0.525909741383035
464,0.525814085067969
463,0.525875681496745
462,0.526123589015036
461,0.526163928110375
460,0.5263120586294
459,0.526631622133224
458,0.527003074047933
457,0.52733426145078
456,0.527812556240649
455,0.52818720370397
454,0.528762201215465
453,0.529277097546366
452,0.529891421758653
451,0.530448793546655
450,0.530952200848018
449,0.531562782733676
448,0.532414861301685
447,0.533105018067486
446,0.533600725314844
445,0.534573142152845
444,0.535183824360761
443,0.536155837363597
442,0.536806081384943
441,0.537590946255437
440,0.538483746109163
439,0.539366599218043
438,0.540161676312186
437,0.540956772381268
436,0.542019981457207
435,0.542801280552053
434,0.543817585711291
433,0.544455879261558
432,0.545514655025774
431,0.546388841093771
430,0.547300752314478
429,0.548477775736263
428,0.549387622282185
427,0.550444667356739
426,0.55146968469798
425,0.552677529595169
424,0.553497746464828
423,0.554500583890747
422,0.555736257285234
421,0.556768724243455
420,0.557841245093603
419,0.558984818684461
418,0.559955404576124
417,0.561153801756384
416,0.562388873828747
415,0.563687938684784
414,0.564948263011517
413,0.566037102912089
412,0.567248123141262
411,0.568709184791102
410,0.569898746484347
409,0.571396795912865
408,0.572411993941934
407,0.573815312730537
406,0.575094128161337
405,0.576165374351088
404,0.577825390449569
403,0.579082448665992
402,0.580504321248065
401,0.581754198304137
400,0.583180299157705
