1100,0.0126784842037822
1099,0.0118265372692483
1098,0.0145283381666688
1097,0.00889295479103476
1096,0.00834025192644284
1095,0.0112486786763589
1094,0.00963754272082177
1093,0.0128471225768085
1092,0.0113864410871445
1091,0.0119173345074591
1090,0.0102459912693563
1089,0.00998654222196391
1088,0.009004996376649
1087,0.0119607046689409
1086,0.0120085499081048
1085,0.0109376849924248
1084,0.0107915462936613
1083,0.0111861221353569
1082,0.0101919796025095
1081,0.0124198158336371
1080,0.0117572217141129
1079,0.00718191832120531
1078,0.0133468909063091
1077,0.0105978940667229
1076,0.0130781402583658
1075,0.0121230220061435
1074,0.0123773320022509
1073,0.0110218445495997
1072,0.0113323405496901
1071,0.0125577637831587
1070,0.011328434730474
1069,0.0124066840238149
1068,0.0100256139404908
1067,0.0122845212861414
1066,0.0113607451487432
1065,0.0103140587159561
1064,0.0130986022616735
1063,0.0134464971029791
1062,0.013685741396222
1061,0.0119722796466801
1060,0.0122036310207258
1059,0.0125939763860397
1058,0.0137400557594484
1057,0.0130585862069315
1056,0.0129957417662873
1055,0.0141180933770705
1054,0.0137220214620685
1053,0.0144247906450911
1052,0.0134966959637132
1051,0.013422654676611
1050,0.0141817423338534
1049,0.0132859797995907
1048,0.0134880175543297
1047,0.0132698859602959
1046,0.0137725193820381
1045,0.0152630593034222
1044,0.0146677073002002
1043,0.0150293225077416
1042,0.0135942799253799
1041,0.015442333803634
1040,0.0153725192429481
1039,0.0149148052352192
1038,0.0157585575199682
1037,0.01529936412371
1036,0.0164764627011815
1035,0.0159539343381281
1034,0.0153864919850823
1033,0.0159596275462105
1032,0.0159254157115198
1031,0.0160747430361146
1030,0.0169761744178472
1029,0.0161685554473791
1028,0.0159106737659103
1027,0.0166271630830125
1026,0.0162157917024913
1025,0.0169896066395547
1024,0.0172724257743804
1023,0.0176680837046486
1022,0.0176956654613721
1021,0.0178668840900578
1020,0.017708931211614
1019,0.0184540542487594
1018,0.0174952186118816
1017,0.0184387400643873
1016,0.0182942407272911
1015,0.018242944360201
1014,0.0186899392868724
1013,0.0189091075541712
1012,0.0186965873140432
1011,0.0192569276077542
1010,0.0193552733217936
1009,0.0182542560383204
1008,0.0197984570519937
1007,0.0196948643982294
1006,0.020322162220976
1005,0.0198899880678401
1004,0.0202009799325637
1003,0.0200313056138016
1002,0.0205364837740842
1001,0.0199629177910936
1000,0.0211724463372503
999,0.0221158278496411
998,0.0218367248207248
997,0.0217154730132537
996,0.0221248438255995
995,0.0223908039609177
994,0.0229614742134481
993,0.0226644270088777
992,0.0224334065014628
991,0.0235093671233167
990,0.0230254499779592
989,0.023565361412738
988,0.0233509607000689
987,0.0239924836205822
986,0.0246911773877795
985,0.0241342122283942
984,0.024995482297433
983,0.0248087406599074
982,0.0258833834761819
981,0.0256181871691434
980,0.0258422269194124
979,0.026403478911004
978,0.0264870304514253
977,0.0262198980634146
976,0.0273849096456245
975,0.0267037836551918
974,0.0272796019685464
973,0.027869488512805
972,0.0282969712524843
971,0.0280658629240955
970,0.029064928117269
969,0.0289964036415963
968,0.0299579241822583
967,0.029458682864096
966,0.0304016829850175
965,0.0301478092138056
964,0.0312667222318659
963,0.0322224426844669
962,0.0311093267971409
961,0.031689154305427
960,0.0324449232734416
959,0.0327010090328434
958,0.0336633910476225
957,0.0339697395491723
956,0.0342536433600402
955,0.0350784616998091
954,0.0344363931173632
953,0.0349841222333857
952,0.0354102436404861
951,0.0353958362668088
950,0.0364858544221678
949,0.0369206673299537
948,0.0372102300084153
947,0.0379100254238505
946,0.0385533783096371
945,0.0386593901787327
944,0.0395437451620342
943,0.0400272161682945
942,0.0402879271163514
941,0.0413313708048948
940,0.0410673867437784
939,0.0418176636415608
938,0.0420930275103386
937,0.043284279213419
936,0.043538654742672
935,0.0439153423064445
934,0.0446777897407011
933,0.045373236713448
932,0.0453929793095351
931,0.0460719578309959
930,0.0469358177341738
929,0.0476505786921226
928,0.0483549438974427
927,0.0488357868371857
926,0.050018283897999
925,0.0503502003838167
924,0.0508831686555903
923,0.0507946443495683
922,0.0515692178112325
921,0.0524697679497547
920,0.0534078720803174
919,0.053968349687332
918,0.0547076780785806
917,0.0549272664125127
916,0.055865282839401
915,0.0562141332004272
914,0.0568464296001836
913,0.0581170755848314
912,0.0588503154619709
911,0.0586053893322461
910,0.060628290326068
909,0.0607740695712806
908,0.0616254301318458
907,0.0624275313559941
906,0.0628295569947117
905,0.0637911725314141
904,0.0644183616882732
903,0.0656881110697453
902,0.0660463312130646
901,0.0667354346792934
900,0.0677955781372458
899,0.0687924667465359
898,0.0689806984534048
897,0.0698901216914991
896,0.0713379569876555
895,0.0716766884823359
894,0.0726562194205653
893,0.0741314669226449
892,0.0745180188593663
891,0.0750260909610278
890,0.0757598355615803
889,0.0772121910509654
888,0.077688815811028
887,0.0791059347644621
886,0.0792130973110091
885,0.0804691479978773
884,0.081661605922429
883,0.082391792327258
882,0.0830301196537065
881,0.0837908353842028
880,0.0842282256680062
879,0.0854856173425324
878,0.0858318160648106
877,0.0874586676751864
876,0.0886706262531601
875,0.0896822588580035
874,0.089768668003819
873,0.0916668068099452
872,0.0928855171488813
871,0.0920242091921661
870,0.0944039499649757
869,0.0949102670842527
868,0.096724476138816
867,0.098085816659967
866,0.0979321510155151
865,0.0988238575449153
864,0.100207259172498
863,0.100181339718818
862,0.101362063932449
861,0.102357398376447
860,0.102830139543786
859,0.104053950109397
858,0.105530376941816
857,0.105516184531725
856,0.107961204405262
855,0.108253021671541
854,0.10937906334524
853,0.109788179272602
852,0.110033400395334
851,0.113168262611816
850,0.113018771447461
849,0.112716386364538
848,0.115718767342047
847,0.114570898243332
846,0.117376808289023
845,0.117526178705595
844,0.118195974568678
843,0.120356125380432
842,0.121572147030607
841,0.121847040816205
840,0.122425934806332
839,0.124019136839438
838,0.12584921972257
837,0.12629763024649
836,0.127137317017913
835,0.128452766919432
834,0.128728431005102
833,0.129648332816102
832,0.131456932378411
831,0.132660386995944
830,0.133055540597997
829,0.134542994152494
828,0.135364037525368
827,0.136464950896691
826,0.136961967564086
825,0.138588379052285
824,0.139032353472276
823,0.140079032669745
822,0.140396476006871
821,0.142367384706698
820,0.143147324789971
819,0.143964366255422
818,0.144278023401889
817,0.145791627707078
816,0.146624403100483
815,0.147669268689456
814,0.148127289178757
813,0.14957438623623
812,0.150639015239864
811,0.151628738335198
810,0.15256609798673
809,0.152291205827421
808,0.15288993347636
807,0.154551280170915
806,0.154637012879758
805,0.155901946337422
804,0.157392186202815
803,0.157486963302148
802,0.157982908799666
801,0.15920680552233
800,0.159220363178781
799,0.160020940133215
798,0.16151470467215
797,0.160782623346758
796,0.160762457371437
795,0.161636037059479
794,0.162888027327954
793,0.163283929400382
792,0.163655967497261
791,0.163938452500433
790,0.164128602975389
789,0.164808840849843
788,0.165127967745627
787,0.165982612123785
786,0.166113623530518
785,0.166140718570619
784,0.165610661087323
783,0.16647035844842
782,0.165869578728356
781,0.166614243833969
780,0.166712157211876
779,0.16602931336581
778,0.166465763106335
777,0.166552892994431
776,0.166708471287132
775,0.165171017866253
774,0.165823728936351
773,0.166547347153724
772,0.166005715522426
771,0.164690363380402
770,0.164641158580201
769,0.164855718733983
768,0.164398204155826
767,0.163659288006671
766,0.163496424298949
765,0.162700452224998
764,0.162295226240807
763,0.162081588681511
762,0.161166330070461
761,0.160735808234478
760,0.160053869584371
759,0.159803593553609
758,0.159320658163169
757,0.158226808692407
756,0.157340789063705
755,0.156667275386746
754,0.15582318992632
753,0.154538754265419
752,0.153447911730504
751,0.152391824996651
750,0.151372375120378
749,0.150827752626967
748,0.149613766375923
747,0.148511194607984
746,0.147488587751174
745,0.146044571805456
744,0.145269398408499
743,0.143081139667564
742,0.142633224708977
741,0.141188503257361
740,0.140118526156021
739,0.138600880668478
738,0.137415150735114
737,0.135750372066956
736,0.134333231856022
735,0.133580601276584
734,0.132123137563831
733,0.130443771904733
732,0.128864622114026
731,0.127156153985063
730,0.125714558593975
729,0.125055653377458
728,0.123269783013033
727,0.121173510841938
726,0.119975459449599
725,0.118696355020921
724,0.117271604734336
723,0.115236452050202
722,0.114423180726572
721,0.112194254223354
720,0.111000630569002
719,0.10921089789988
718,0.107663214664229
717,0.106295042942949
716,0.104847225257231
715,0.103323558450777
714,0.101772691870346
713,0.100254765885161
712,0.0986155151696064
711,0.096864999641978
710,0.0958308035177979
709,0.0943588803377911
708,0.0929056827262374
707,0.0913128606669176
706,0.0900759655120199
705,0.0889454722072229
704,0.0875046733812128
703,0.0856962990504813
702,0.0842095588732412
701,0.0832410869215865
700,0.0820042369901852
699,0.080535233664363
698,0.0796296982223349
697,0.078125244450349
696,0.0766755819286221
695,0.0759583887305298
694,0.0746046285978277
693,0.073327243527735
692,0.0725714046576062
691,0.0716758641459766
690,0.0704904706665849
689,0.0693562527965425
688,0.0683349534951653
687,0.0675144384973364
686,0.0663219077489077
685,0.0655651474111164
684,0.0648219047427566
683,0.0639462353431684
682,0.0631936296902557
681,0.0625933199710598
680,0.0618838267212222
679,0.061012178676018
678,0.0604952354341833
677,0.0598317304206602
676,0.0591838326142053
675,0.0588142420457959
674,0.0582057437319716
673,0.057553290480535
672,0.0573566524829887
671,0.0566541518381338
670,0.0563507456505131
669,0.0559179532099444
668,0.055733325832274
667,0.055307175228009
666,0.0552190380482369
665,0.055050927322068
664,0.054701600376609
663,0.0545813557051757
662,0.054647873667247
661,0.0543432250951647
660,0.0544859410615877
659,0.0543962979859474
658,0.0542758738160519
657,0.054307641432424
656,0.0543403501320398
655,0.0542017290864148
654,0.0546726810759443
653,0.0548452859191915
652,0.0547048300627191
651,0.0550692341265268
650,0.0553593074687425
649,0.0555107116820519
648,0.0555623682402801
647,0.0560267882515215
646,0.0563734694475133
645,0.0567380084583599
644,0.0570732722132789
643,0.0577084772170642
642,0.0580114432474335
641,0.0586661856895851
640,0.0589631197978144
639,0.0596264562067906
638,0.0604261201174675
637,0.0605299608831497
636,0.0613526676369666
635,0.0619901066804072
634,0.0627674272736701
633,0.0638107210097725
632,0.0642811091544555
631,0.065171711020435
630,0.0658147241395965
629,0.0670374560694343
628,0.0678031733074835
627,0.068617898268965
626,0.0695550589022715
625,0.070678404250485
624,0.0715264408671929
623,0.072886422601276
622,0.0742367946382526
621,0.074759419671306
620,0.0766474162154246
619,0.0777562135548703
618,0.079230556439363
617,0.0802797020795195
616,0.0818249962546116
615,0.083177253024572
614,0.084829857898506
613,0.0866191363710209
612,0.0879249661784336
611,0.0896399676092094
610,0.0914717747958121
609,0.0930547575070725
608,0.0952624843760794
607,0.0970574197820223
606,0.0991097598635898
605,0.101146782538118
604,0.103143934239825
603,0.105275446308686
602,0.107462159761924
601,0.109940330094806
600,0.112511637362731
599,0.115026902039006
598,0.117624011430937
597,0.119830633910227
596,0.122689008472083
595,0.125500445555759
594,0.128456490003317
593,0.13151415083532
592,0.134624689862607
591,0.137839828764151
590,0.141016909046379
589,0.144318225408481
588,0.147726553948919
587,0.151314056833848
586,0.154775884037785
585,0.15857700927838
584,0.162362185882848
583,0.166574583229647
582,0.170213130150175
581,0.174484451512081
580,0.178872480984011
579,0.183293258172323
578,0.187265906829039
577,0.191719341359879
576,0.196331101513458
575,0.200615573170465
574,0.205347426536002
573,0.210416642768321
572,0.214646348853971
571,0.219450602459212
570,0.22426039496798
569,0.229415329647244
568,0.234496202181122
567,0.238915655684554
566,0.243560113453249
565,0.248617907043176
564,0.253730748328703
563,0.258835905405301
562,0.263482478448103
561,0.268052505708249
560,0.272811368825077
559,0.277530202373305
558,0.281824407064281
557,0.28626371849475
556,0.291414361403859
555,0.295319313163795
554,0.29942461948839
553,0.303267820677195
552,0.306975721294892
551,0.311380637088034
550,0.315038490284595
549,0.318761846301337
548,0.322051895262852
547,0.324826433788542
546,0.328030407801377
545,0.331165873936331
544,0.333739154598154
543,0.335994450054876
542,0.338022845299854
541,0.339981356370511
540,0.341722331458223
539,0.343664594619902
538,0.344935514408981
537,0.346106655457154
536,0.346935302999118
535,0.347435360038947
534,0.348107125165012
533,0.348341043949422
532,0.348263807383878
531,0.348064487377606
530,0.347529908753769
529,0.347081777066004
528,0.346240957533477
527,0.345044130099985
526,0.34395299282115
525,0.342489673697817
524,0.341011088366328
523,0.339029517239489
522,0.337041590510902
521,0.334700771455281
520,0.332615299019104
519,0.329980270378416
518,0.3278190406357
517,0.324937354911883
516,0.322025432691594
515,0.319144779584639
514,0.316031101356086
513,0.313006107095397
512,0.309783176825398
511,0.306423635211398
510,0.303207172997534
509,0.299624489934876
508,0.296498257334859
507,0.293138263869669
506,0.289299195340756
505,0.286092110922521
504,0.282402834468081
503,0.278911443438819
502,0.275268945947976
501,0.271888092198713
500,0.268519038708925
499,0.26504632574701
498,0.261883696083761
497,0.259063858539053
496,0.255907568890874
495,0.252633239924541
494,0.249518347510645
493,0.246597836868872
492,0.244039870695941
491,0.241869989283512
490,0.238776797560575
489,0.236379122047257
488,0.234169363081465
487,0.232033900940461
486,0.229728240812514
485,0.227596527200821
484,0.226008359324385
483,0.22460751506509
482,0.222638065226906
481,0.221059281166107
480,0.219332713590415
479,0.217830248831021
478,0.216691197243282
477,0.215311369287522
476,0.21418330480014
475,0.213028991443399
474,0.211810491582905
473,0.211007459461068
472,0.210108349678679
471,0.209199950622305
470,0.208251841268106
469,0.2076550296721
468,0.206751659019032
467,0.206153491830577
466,0.205669731337773
465,0.204870661457662
464,0.204346057054467
463,0.204099522868505
462,0.203606832578317
461,0.203251910605061
460,0.202772567014827
459,0.202447247030457
458,0.202047761361663
457,0.201926137000362
456,0.201637606043301
455,0.201336673660797
454,0.201149303501137
453,0.20089080451764
452,0.200689737363624
451,0.20077266834018
450,0.200658878590162
449,0.200558387050573
448,0.200393690378361
447,0.200369709838135
446,0.20045767233979
445,0.200357720064555
444,0.20030992850314
443,0.200273267235967
442,0.200438041441685
441,0.200300978434574
440,0.200281518830241
439,0.200459807972181
438,0.200516488208141
437,0.200572025585034
436,0.200676588217354
435,0.200680039829714
434,0.200895573388846
433,0.200992236539959
432,0.201126515192677
431,0.201364740887158
430,0.201595026473408
429,0.201729203328523
428,0.201760508988487
427,0.202138414476673
426,0.202183150248612
425,0.202522508748277
424,0.202697550928789
423,0.202840369253866
422,0.203169703376939
421,0.203481503683347
420,0.203613699826918
419,0.20392995910015
418,0.204212063629063
417,0.204461480326688
416,0.204746087253772
415,0.205001413612356
414,0.205504290164604
413,0.205788666829072
412,0.206173133107845
411,0.206520122849806
410,0.206778661556754
409,0.207167092100884
408,0.207499891889707
407,0.207917253324158
406,0.208322051766764
405,0.208722623371878
404,0.209113635194389
403,0.209376280148191
402,0.210033861194641
401,0.210463836510001
400,0.210992058590897
