1100,0.00918466676799766
1099,0.00425478671632034
1098,0.00540708520796715
1097,0.0107477089645613
1096,0.00974072268715465
1095,0.00498211019794607
1094,0.0073168696375254
1093,0.00964124809308665
1092,0.00657735025583339
1091,0.0078815033405387
1090,0.00902616596984838
1089,0.00980320374605813
1088,0.00544330931225882
1087,0.00908859717088113
1086,0.00621487642583155
1085,0.00723229313505373
1084,0.00724611169927258
1083,0.00909388388287162
1082,0.00827587024685049
1081,0.00927168704749233
1080,0.00877198761876485
1079,0.008870629202504
1078,0.0111805708436639
1077,0.00909747888378547
1076,0.00938702702378209
1075,0.00928451284130418
1074,0.008913907541161
1073,0.00838550951608177
1072,0.00814555294659164
1071,0.0109407643606863
1070,0.00807980239945321
1069,0.009301729089892
1068,0.00722100172043361
1067,0.00911228214228023
1066,0.0107347602853463
1065,0.00777083167232917
1064,0.00952012526207637
1063,0.00979195119679658
1062,0.0106508155087963
1061,0.00929482664098569
1060,0.0106933960873218
1059,0.0103505618930838
1058,0.0100202099136836
1057,0.0113484690323343
1056,0.00983068766851246
1055,0.0110491932792987
1054,0.0112606066150719
1053,0.0100775384093323
1052,0.01114572416442
1051,0.0100032035622233
1050,0.0105659055853426
1049,0.0105782391734497
1048,0.0107604722823398
1047,0.0112681514046931
1046,0.0104652872014909
1045,0.0113232270261606
1044,0.0102138431824746
1043,0.0121028188550575
1042,0.0113389034678806
1041,0.0117751214099451
1040,0.0113663253163713
1039,0.0118488557214458
1038,0.0112369104520921
1037,0.0107840363160517
1036,0.0117252807019709
1035,0.0121170062133568
1034,0.0129898472321995
1033,0.0125606414954614
1032,0.0118926447183062
1031,0.0122213627520196
1030,0.0131093005115985
1029,0.0117511046023616
1028,0.0129935279726107
1027,0.013008197900119
1026,0.0131035645094175
1025,0.0126317377021491
1024,0.0128304051003613
1023,0.0133473447020908
1022,0.0135172311061069
1021,0.0136435342353211
1020,0.0140605231750899
1019,0.0138052259297841
1018,0.0147656351110301
1017,0.0138818715089923
1016,0.0141070761014054
1015,0.0147540657862599
1014,0.0145712203319294
1013,0.0143012029101039
1012,0.0150250081370532
1011,0.0150604354808781
1010,0.0156382660926654
1009,0.0151451029951857
1008,0.0158668268198435
1007,0.0155953857728211
1006,0.0158482475754731
1005,0.0160538717245366
1004,0.0165219846238771
1003,0.0166011820919025
1002,0.0164354889846955
1001,0.0167951356875944
1000,0.0167977187332094
999,0.0172183142558317
998,0.017693778090809
997,0.0177660432759354
996,0.0183019087047956
995,0.0179405809259751
994,0.0180313703913676
993,0.0185017828693775
992,0.0190242503445961
991,0.0188848281670451
990,0.0188356516966757
989,0.0198137379760319
988,0.0197776498497347
987,0.0204828866853763
986,0.0203854247798623
985,0.0196295357129123
984,0.0211647546883578
983,0.021068416774047
982,0.021187585422216
981,0.0217327537499911
980,0.0218107297194257
979,0.0223126420290847
978,0.0220891078842957
977,0.0229311545212145
976,0.0229466552335247
975,0.0231189741743569
974,0.0234938189893205
973,0.0238992087533129
972,0.0242344351544577
971,0.0247171810674179
970,0.0247837729304919
969,0.0250977143113728
968,0.0256993082359626
967,0.0261343085339837
966,0.0258515403782016
965,0.0255313709118308
964,0.026039005897918
963,0.0272075277947027
962,0.0271793628595002
961,0.0275994358531401
960,0.0276349936256696
959,0.0280754727236074
958,0.0279209409010258
957,0.0285382096826836
956,0.0286606627111478
955,0.0288337704886723
954,0.029146723299753
953,0.0297825935281312
952,0.0299684357333435
951,0.030363427281946
950,0.0307176295554064
949,0.0311510689943294
948,0.0313431459227818
947,0.0319639082922685
946,0.0318829458777022
945,0.0325996783412012
944,0.0323160446566656
943,0.0323772021490753
942,0.032785641487438
941,0.033584236719992
940,0.0338716386188779
939,0.0345563723346936
938,0.0352592006138334
937,0.0352804260207107
936,0.0350054744944364
935,0.0360209320920954
934,0.0365134468643776
933,0.0373804321614338
932,0.0371520538841377
931,0.0376999740217195
930,0.0384077426035932
929,0.0380307139622191
928,0.0388958103304321
927,0.0393396755704518
926,0.0397217288019534
925,0.0406590470814813
924,0.0412190120980991
923,0.0410410113866673
922,0.0422976248669879
921,0.0420148597994541
920,0.0431171224611473
919,0.0433660796510761
918,0.0443861312560468
917,0.0444363666446208
916,0.0443576040418074
915,0.0450700261861797
914,0.0459665096450065
913,0.0465697287179535
912,0.0470743599371097
911,0.0469851086560854
910,0.0475240395236898
909,0.0478618868272685
908,0.0486932647072043
907,0.0493875197864528
906,0.050440378570363
905,0.0508249652391614
904,0.0508060508082054
903,0.052040444576725
902,0.0520616890937122
901,0.0524586974339059
900,0.0531380264563014
899,0.0544178634513532
898,0.0547013067699718
897,0.055627536045947
896,0.0558754690086997
895,0.0565790692171318
894,0.0568798907322449
893,0.0576794456910619
892,0.0579686946046266
891,0.0590301640605295
890,0.0600775871459364
889,0.0604187421195671
888,0.0607864557690094
887,0.0613807829441767
886,0.0620701323521421
885,0.0623219510799985
884,0.0630455994909776
883,0.0639414965760283
882,0.0644128071018517
881,0.0651384169341962
880,0.0653744479884871
879,0.0663230235546834
878,0.0673669538189729
877,0.0673544087459579
876,0.0689192601206418
875,0.068963980298168
874,0.0692241403626593
873,0.0705403164571163
872,0.0706593056822292
871,0.0723148582354454
870,0.0732689869931098
869,0.0727199637822395
868,0.0726810060826979
867,0.0748780328047922
866,0.0746454192230425
865,0.0754517200155222
864,0.0761655775872294
863,0.0771647583069673
862,0.0765159386213635
861,0.0782063468927227
860,0.0788190867253993
859,0.0797654191171108
858,0.0799685509864
857,0.0795202878051368
856,0.0812446128116748
855,0.0822570314910113
854,0.083155841299116
853,0.0824292211443344
852,0.0835566946355859
851,0.0845005881346911
850,0.0855528806283784
849,0.0863663803918418
848,0.086244651319563
847,0.089095767775178
846,0.0873747111174794
845,0.0902164248792201
844,0.088401919274758
843,0.0906507376637023
842,0.0917066102378204
841,0.0918951266170473
840,0.0918618624809318
839,0.093411603212318
838,0.0946607527041027
837,0.0950745953104948
836,0.0960900987229536
835,0.0961282101821324
834,0.0973213675375483
833,0.097285126739807
832,0.0973313108052033
831,0.0992309203564083
830,0.100017316861361
829,0.101218934200592
828,0.101398188846264
827,0.102081630019355
826,0.102801734318098
825,0.102548039326891
824,0.104559498032565
823,0.104580674107948
822,0.10542140432655
821,0.106097462515716
820,0.106793343333948
819,0.106914017867062
818,0.107564847626673
817,0.108040671895819
816,0.108124038763223
815,0.109299350599692
814,0.110289771967751
813,0.110656761686177
812,0.11136618111036
811,0.112680683375377
810,0.112339773729824
809,0.113481820432187
808,0.112997314234264
807,0.113000907152249
806,0.11469112428112
805,0.114749783208463
804,0.114984262051263
803,0.11556626781898
802,0.116631978693781
801,0.11657685691378
800,0.117558108504423
799,0.116887363717732
798,0.116987323148385
797,0.118527264218386
796,0.1180243269016
795,0.119283291993061
794,0.119034427821495
793,0.11867529586841
792,0.120389903364089
791,0.119118740257829
790,0.120226775558687
789,0.119943180836091
788,0.120640468418373
787,0.121258034277366
786,0.120560336108079
785,0.120896820239481
784,0.12080173465491
783,0.121040017857321
782,0.120711626001246
781,0.120547625646093
780,0.121320359459691
779,0.121252729691357
778,0.120082446425615
777,0.12050526012591
776,0.120184031658437
775,0.121040804599913
774,0.119410316384138
773,0.120007262713186
772,0.119406329270627
771,0.120104495502116
770,0.118342499549502
769,0.119394708917833
768,0.118201072033034
767,0.118001975566991
766,0.118366534229598
765,0.117356050443922
764,0.117605651268813
763,0.116808361219778
762,0.11623284250211
761,0.115660180109778
760,0.115529823158774
759,0.11449295616632
758,0.114022736294892
757,0.113586177081345
756,0.112979249358766
755,0.112639480942156
754,0.111536354651549
753,0.111618152686368
752,0.110795485962668
751,0.109582373773374
750,0.108330748716582
749,0.107916365133666
748,0.107838214479791
747,0.106870644010214
746,0.105401573063463
745,0.104921444605419
744,0.103390259282169
743,0.103277553655068
742,0.101987039787225
741,0.100831782294284
740,0.100726691511273
739,0.0995466493468626
738,0.0978736121228657
737,0.0966887702283352
736,0.096385065271555
735,0.0953588453086399
734,0.0939319321494916
733,0.0934006258844459
732,0.0919318480644277
731,0.0912013615637731
730,0.0897175842765006
729,0.089083405352074
728,0.0881440331768923
727,0.0864410767259688
726,0.0862245085272913
725,0.0848892455111112
724,0.084216221004212
723,0.0825874529958666
722,0.0816582631398699
721,0.0800739344845874
720,0.0795662685357073
719,0.0783609080335716
718,0.0775342460690265
717,0.0764490417485666
716,0.0753246063432246
715,0.0739192001929107
714,0.0727951653917785
713,0.0716233540912243
712,0.071008787030682
711,0.0698992434874408
710,0.0689212927560867
709,0.0681626584428769
708,0.0672216647821169
707,0.0660159835647051
706,0.0651803733149456
705,0.0640621412902895
704,0.0634818121081688
703,0.0622145144616569
702,0.0608840392044202
701,0.0605149634334526
700,0.0594410176114803
699,0.0587095660711628
698,0.0577252111371523
697,0.056534751201537
696,0.0561250164445612
695,0.0553015301493636
694,0.0544304217939607
693,0.0537955069605988
692,0.052455192316203
691,0.0524313874736181
690,0.0516357716056932
689,0.0506968869911773
688,0.0502328688634937
687,0.0494066335806967
686,0.0489154817572653
685,0.048449599697459
684,0.0479560304988624
683,0.0472565252332264
682,0.0465554362023738
681,0.0460582285470348
680,0.0457532452826195
679,0.0452482211087007
678,0.0450077154302971
677,0.0444942076189987
676,0.0439029125313004
675,0.0438401676455806
674,0.0433782938356105
673,0.0430475737843108
672,0.0428182249880358
671,0.0423794965133359
670,0.0422890362301087
669,0.0422808186900362
668,0.0420102973614455
667,0.0417585535985031
666,0.041868087389546
665,0.0416063409495283
664,0.0414734335883353
663,0.0414189550333762
662,0.041317932915386
661,0.0414495681214603
660,0.0413218902167722
659,0.0415319351606687
658,0.0413053495060049
657,0.0413721140663997
656,0.0416603301585665
655,0.041590814952612
654,0.0420000320511677
653,0.041947882319545
652,0.0421769429874849
651,0.0424749425507665
650,0.0427988276240216
649,0.0428823938705652
648,0.0429910397459723
647,0.0433683393923404
646,0.0437379509846836
645,0.0438990748384998
644,0.0441983448071172
643,0.0448698595306677
642,0.0451106909287304
641,0.0457907524274519
640,0.0459804662453348
639,0.046359336222772
638,0.0470775045475034
637,0.0476433856807882
636,0.0482669623111691
635,0.048542944556803
634,0.0491937609474923
633,0.0499048169494029
632,0.0507539967276963
631,0.0512952681902898
630,0.0516754813553621
629,0.0527990330065763
628,0.0536695667556202
627,0.0545563187055018
626,0.0549117268215144
625,0.0557124306750987
624,0.0566061989099692
623,0.0579178454705224
622,0.0587439415818089
621,0.0598723155689891
620,0.0610114637065794
619,0.0622192344222938
618,0.0629848154532335
617,0.0643783702516201
616,0.0654743922147368
615,0.0667716891012032
614,0.0680444420310498
613,0.0696353057531238
612,0.0709811693253778
611,0.0722948314815832
610,0.0737237855274718
609,0.0753291014925689
608,0.0767932367682085
607,0.0785283338252066
606,0.0804153147745337
605,0.0821234696061743
604,0.0836612263341669
603,0.0855378762935685
602,0.0876855138458005
601,0.0897764981903067
600,0.0918175036022589
599,0.0941098110509738
598,0.0960925209619327
597,0.0982986767730992
596,0.10054653908925
595,0.10306712989226
594,0.105393093082608
593,0.108198919901988
592,0.11085455660549
591,0.113556521642868
590,0.116085437989394
589,0.119035551425672
588,0.121927170979443
587,0.124847627557193
586,0.128182528446889
585,0.131332010005844
584,0.134592045024781
583,0.138152721350406
582,0.141336759355312
581,0.144803902636432
580,0.148653843286807
579,0.152332266808764
578,0.156411669471603
577,0.159790092475176
576,0.163549007849222
575,0.167543733407915
574,0.171449482918764
573,0.175827250668709
572,0.179332090820131
571,0.183451436764311
570,0.187685077094728
569,0.192190662154103
568,0.19643831014182
567,0.200506055203425
566,0.204376308662055
565,0.208261249401767
564,0.212981391328937
563,0.217364482664492
562,0.221792692855559
561,0.225475312925539
560,0.229696873653593
559,0.233897680253376
558,0.23767656631036
557,0.241747391407098
556,0.245348279542764
555,0.249164664227462
554,0.253220786288249
553,0.256398133231123
552,0.259760535782001
551,0.263190597708322
550,0.265846765661677
549,0.269551348785364
548,0.272189076693918
547,0.27471928104569
546,0.277444431162502
545,0.279818923342497
544,0.282120215836963
543,0.284096294921334
542,0.285933971801726
541,0.28735418409475
540,0.288894180301898
539,0.290182157968188
538,0.291820619569741
537,0.292490439873098
536,0.293312017757961
535,0.293816180389913
534,0.294186265185979
533,0.294223673268229
532,0.294231980949895
531,0.294068048288977
530,0.293623138127079
529,0.29318086959866
528,0.292394151457395
527,0.291341144651557
526,0.29028406841119
525,0.289229911545996
524,0.287583658648019
523,0.286094411916639
522,0.284322559501701
521,0.282217078771268
520,0.280264614812488
519,0.278322707278263
518,0.276197196631997
517,0.273902287073807
516,0.271309954470033
515,0.268721325110631
514,0.266049005035277
513,0.263380827195531
512,0.260569819846616
511,0.257658808275892
510,0.255034077960049
509,0.252216211448232
508,0.249286019362248
507,0.246368024038708
506,0.24326667548283
505,0.240075001465497
504,0.237180139935236
503,0.234246288665712
502,0.231043128509681
501,0.228395028090035
500,0.225660335829211
499,0.222661059813715
498,0.219989188320813
497,0.217434516475928
496,0.214644269608306
495,0.211917669186136
494,0.209434471608651
493,0.206731408217461
492,0.204679272459547
491,0.202734623852654
490,0.200348440535524
489,0.19813123482153
488,0.196308483263497
487,0.194487395037163
486,0.192399885775064
485,0.190605116748343
484,0.189559263523923
483,0.187982839590492
482,0.186259017746837
481,0.184887825723137
480,0.183691460186498
479,0.18226937434355
478,0.181116405833654
477,0.180034193221728
476,0.179021903451363
475,0.177945670987128
474,0.177124041935677
473,0.176162619589796
472,0.175554844912032
471,0.174670917240776
470,0.174011468731865
469,0.173381689566248
468,0.172702888228611
467,0.172131482310119
466,0.171486556090935
465,0.171052479801429
464,0.170594489973493
463,0.170096577750281
462,0.169767466026215
461,0.16943577386279
460,0.169123478102349
459,0.169054245370302
458,0.168632286673536
457,0.168418103845589
456,0.167990664600011
455,0.167950992428463
454,0.167749562499608
453,0.167728461006236
452,0.167497059379988
451,0.167205060849717
450,0.167228495685022
449,0.167072921179434
448,0.166912688258777
447,0.166906149395132
446,0.166877904156008
445,0.166809180479739
444,0.166793977595602
443,0.166893908298794
442,0.16694975635257
441,0.166883416205112
440,0.166883796349008
439,0.167081440198974
438,0.166950744878382
437,0.166982645053787
436,0.167202930472848
435,0.167285490220892
434,0.167435507585575
433,0.167398283831891
432,0.167491425334187
431,0.167687784486234
430,0.167906789474264
429,0.167901721664407
428,0.16809491183223
427,0.168388157957108
426,0.168352378188988
425,0.168575954709514
424,0.168772690397519
423,0.168961990422486
422,0.169115759558004
421,0.169354410080265
420,0.169649885432168
419,0.169844390830619
418,0.170160193175273
417,0.170332089512731
416,0.170471204104404
415,0.170825438462737
414,0.171042193800808
413,0.171413757363796
412,0.17163368902724
411,0.171974641821537
410,0.172148335357225
409,0.172557587987317
408,0.17283004656022
407,0.173112818270312
406,0.173275046942582
405,0.173817637807868
404,0.174188298506889
403,0.174457797980441
402,0.175099058118484
401,0.17540800600479
400,0.175697078211569
